-0.5248413086
-0.5355224609
-0.5234985352
-0.5268859863
-0.522857666
-0.5216064453
-0.5352783203
-0.5440673828
-0.5679321289
-0.5961608887
-0.5946960449
-0.5936584473
-0.6043701172
-0.614654541
-0.635345459
-0.6440734863
-0.6659240723
-0.6984863281
-0.7027282715
-0.6929931641
-0.651763916
-0.6331481934
-0.66015625
-0.6741943359
-0.6397705078
-0.5570373535
-0.4889831543
-0.5076293945
-0.4601745605
-0.3307189941
-0.1999206543
-0.04019165039
0.2297668457
0.5582885742
0.7652587891
0.9291992188
0.8597717285
0.7067871094
0.4046020508
-0.1484680176
-0.6856384277
-1
-0.979309082
-0.9654846191
-0.8762512207
-0.701385498
-0.602935791
-0.6115112305
-0.6706542969
-0.6435241699
-0.5950317383
-0.5733642578
-0.6054382324
-0.6556396484
-0.6571960449
-0.6639709473
-0.6834106445
-0.6563110352
-0.568359375
-0.4970397949
-0.5016174316
-0.5416564941
-0.5823059082
-0.6023864746
-0.5928039551
-0.5552368164
-0.515625
-0.4931640625
-0.455657959
-0.4218139648
-0.399597168
-0.3586425781
-0.3053588867
-0.2228393555
-0.122253418
0.01498413086
0.2085571289
0.2845153809
0.2905578613
0.2679443359
0.1533508301
0.09240722656
0.03817749023
0.0217590332
0.01626586914
-0.01068115234
0.005157470703
0.0436706543
0.1024169922
0.1500549316
0.2476806641
0.3317260742
0.4288024902
0.5114135742
0.5470581055
0.5937805176
0.5763244629
0.5157775879
0.4139404297
0.3117980957
0.2496337891
0.1897583008
0.1034240723
0.003692626953
-0.006469726562
-0.0006103515625
0.0003356933594
-0.04116821289
-0.004547119141
0.1965332031
0.1003417969
0.04296875
0.03872680664
-0.1620178223
-0.4047241211
-0.7341308594
-0.8358154297
-0.8135681152
-0.7829589844
-0.6603088379
-0.549987793
-0.4757080078
-0.434753418
-0.4131469727
-0.3670043945
-0.298614502
-0.3022155762
-0.2824401855
-0.1797180176
-0.200592041
-0.2518920898
-0.2890014648
-0.4023742676
-0.4452209473
-0.4532470703
-0.3673706055
-0.2594909668
-0.2618103027
-0.3175964355
-0.4860229492
-0.5610961914
-0.5775756836
-0.5991210938
-0.6233825684
-0.5902709961
-0.4515991211
-0.451171875
-0.4482727051
-0.4326171875
-0.4115905762
-0.4029846191
-0.435760498
-0.4321289062
-0.4458618164
-0.407989502
-0.443359375
-0.4677124023
-0.4101867676
-0.406463623
-0.3990478516
-0.4595947266
-0.5207824707
-0.5385742188
-0.5538635254
-0.5435791016
-0.5552368164
-0.5748596191
-0.5848083496
-0.5729064941
-0.5934753418
-0.6352844238
-0.6435546875
-0.640411377
-0.6440734863
-0.6774291992
-0.7100219727
-0.717590332
-0.7065734863
-0.7062988281
-0.7044677734
-0.6853027344
-0.6851501465
-0.682220459
-0.6856384277
-0.6899719238
-0.6827697754
-0.6572265625
-0.6643066406
-0.6836242676
-0.6502380371
-0.6340026855
-0.5576782227
-0.5140380859
-0.5497741699
-0.5585327148
-0.5496520996
-0.5397033691
-0.5836791992
-0.5810241699
-0.5412597656
-0.532409668
-0.5404052734
-0.5537719727
-0.5426940918
-0.5274047852
-0.5273742676
-0.5496520996
-0.5599060059
-0.5448608398
-0.5142211914
-0.4808349609
-0.4640808105
-0.4416809082
-0.4405822754
-0.4290466309
-0.3760681152
-0.3283996582
-0.2742004395
-0.2514953613
-0.2594909668
-0.2866821289
-0.3487243652
-0.4080505371
-0.4360656738
-0.478515625
-0.5467834473
-0.5869445801
-0.596496582
-0.6065673828
-0.637512207
-0.6942749023
-0.7350158691
-0.7051391602
-0.694152832
-0.7052307129
-0.719543457
-0.6932373047
-0.578918457
-0.4579772949
-0.401763916
-0.3523254395
-0.1904907227
-0.03363037109
0.09881591797
0.3161315918
0.611907959
0.8139343262
0.9762878418
0.9549865723
0.7979431152
0.6527404785
0.1994628906
-0.3726501465
-0.8281860352
-0.9350280762
-0.8901367188
-0.8506469727
-0.6865844727
-0.5392456055
-0.4642944336
-0.4838256836
-0.4811401367
-0.4515686035
-0.4345703125
-0.448059082
-0.4737243652
-0.4416503906
-0.3726196289
-0.3282775879
-0.3289794922
-0.3467102051
-0.343170166
-0.3040466309
-0.2892456055
-0.2916259766
-0.3091125488
-0.325592041
-0.2872924805
-0.2535095215
-0.2366943359
-0.2137145996
-0.1925048828
-0.1825866699
-0.1930541992
-0.2026062012
-0.197845459
-0.1917114258
-0.189666748
-0.1903381348
-0.1944274902
-0.2019042969
-0.2304382324
-0.2549438477
-0.2493896484
-0.2307434082
-0.1785888672
-0.1278381348
-0.08715820312
-0.01657104492
0.05813598633
0.1262207031
0.173614502
0.1917419434
0.1844177246
0.1622314453
0.1495666504
0.131072998
0.08038330078
0.01174926758
-0.03936767578
-0.07507324219
-0.1294555664
-0.1951293945
-0.2435913086
-0.2934875488
-0.3513793945
-0.4259643555
-0.479309082
-0.51171875
-0.5576171875
-0.5775146484
-0.5855407715
-0.5788269043
-0.5635986328
-0.5689086914
-0.5704956055
-0.5540466309
-0.5471801758
-0.532043457
-0.5235900879
-0.5293579102
-0.5265808105
-0.5332336426
-0.5324707031
-0.5369567871
-0.5499572754
-0.5567932129
-0.541229248
-0.5188903809
-0.5140991211
-0.5123291016
-0.5171813965
-0.531829834
-0.5358581543
-0.5342102051
-0.5409545898
-0.528503418
-0.5013427734
-0.4889831543
-0.4917907715
-0.4827270508
-0.4749755859
-0.4875488281
-0.5094604492
-0.5271911621
-0.5069580078
-0.4989929199
-0.5209960938
-0.5249938965
-0.5340881348
-0.5480041504
-0.543762207
-0.5338745117
-0.5237121582
-0.503112793
-0.4804382324
-0.4840087891
-0.4918823242
-0.4965209961
-0.4889526367
-0.4985351562
-0.5214233398
-0.4815368652
-0.4656982422
-0.4725341797
-0.4630126953
-0.4765930176
-0.495880127
-0.4957580566
-0.4862670898
-0.4792175293
-0.4610290527
-0.4681091309
-0.4729919434
-0.4678955078
-0.4765625
-0.4719543457
-0.4808959961
-0.4912719727
-0.4932861328
-0.5075683594
-0.5064697266
-0.4944763184
-0.5030822754
-0.5101013184
-0.4965820312
-0.4915771484
-0.5027770996
-0.5083618164
-0.5099182129
-0.5173034668
-0.5157470703
-0.5121765137
-0.5144042969
-0.5189819336
-0.5283813477
-0.5318908691
-0.542388916
-0.5415344238
-0.5350952148
-0.5552978516
-0.5611877441
-0.5559387207
-0.5581665039
-0.5693359375
-0.5841064453
-0.5946655273
-0.5948181152
-0.5898132324
-0.5927734375
-0.591217041
-0.5926208496
-0.5911560059
-0.5968933105
-0.5797119141
-0.571105957
-0.5798950195
-0.5479736328
-0.5235900879
-0.5184020996
-0.5316467285
-0.5435180664
-0.5534973145
-0.5795898438
-0.5781555176
-0.5658874512
-0.5530395508
-0.5262756348
-0.5358581543
-0.5547180176
-0.5492248535
-0.5327148438
-0.5377502441
-0.5636901855
-0.5524902344
-0.5369262695
-0.5381774902
-0.5836181641
-0.6279296875
-0.604675293
-0.5534057617
-0.4798278809
-0.462097168
-0.3941650391
-0.248626709
-0.1412658691
0.03472900391
0.2631835938
0.5336608887
0.8295288086
0.997833252
0.9260253906
0.7360839844
0.5137329102
0.05407714844
-0.5331115723
-0.7571105957
-0.7265014648
-0.7704162598
-0.7257995605
-0.6033935547
-0.5068359375
-0.4898986816
-0.5238342285
-0.5011291504
-0.4702148438
-0.4676208496
-0.4949035645
-0.5045471191
-0.4758605957
-0.453125
-0.4544677734
-0.4917907715
-0.5183105469
-0.499206543
-0.4647827148
-0.4477844238
-0.4354248047
-0.4288330078
-0.4116821289
-0.3714294434
-0.372467041
-0.3699645996
-0.3437805176
-0.3382263184
-0.3308105469
-0.3147888184
-0.2864074707
-0.2564086914
-0.2409973145
-0.2176818848
-0.1891479492
-0.1516113281
-0.1045837402
-0.07385253906
-0.05529785156
-0.02780151367
0.002075195312
0.03158569336
0.0595703125
0.07788085938
0.08731079102
0.103302002
0.1090698242
0.09460449219
0.09255981445
0.08773803711
0.09124755859
0.08892822266
0.08074951172
0.06387329102
0.0329284668
0.01571655273
-0.01586914062
-0.05853271484
-0.09552001953
-0.1325378418
-0.173034668
-0.210144043
-0.2523193359
-0.2881774902
-0.3149108887
-0.3497314453
-0.3776855469
-0.3910827637
-0.3910522461
-0.3974304199
-0.4077148438
-0.4188842773
-0.4201965332
-0.4200744629
-0.442565918
-0.4519958496
-0.4510498047
-0.4501647949
-0.4446411133
-0.4331054688
-0.4230041504
-0.4211730957
-0.4259643555
-0.4252624512
-0.407989502
-0.407409668
-0.4071655273
-0.4059143066
-0.4127807617
-0.4127502441
-0.4287414551
-0.4313659668
-0.4258728027
-0.4346923828
-0.4242553711
-0.4123535156
-0.4049377441
-0.3823242188
-0.3730773926
-0.3858642578
-0.3817749023
-0.3693237305
-0.3706665039
-0.3664245605
-0.365020752
-0.375
-0.3887634277
-0.4005432129
-0.4241027832
-0.4420471191
-0.4479980469
-0.4615783691
-0.4801330566
-0.5018615723
-0.5051879883
-0.5121765137
-0.5285339355
-0.5426635742
-0.5461730957
-0.5397644043
-0.5408325195
-0.5444030762
-0.5471801758
-0.5477600098
-0.5337219238
-0.5237121582
-0.5218505859
-0.5143432617
-0.5057067871
-0.5010681152
-0.5130310059
-0.4978027344
-0.4868469238
-0.4935302734
-0.4988708496
-0.5128173828
-0.5052185059
-0.4971008301
-0.4908447266
-0.4895629883
-0.5067443848
-0.5143127441
-0.5045166016
-0.5086975098
-0.5015869141
-0.5029602051
-0.5023498535
-0.4931945801
-0.5185852051
-0.5320129395
-0.5415344238
-0.5419616699
-0.5386657715
-0.5477905273
-0.5354003906
-0.5242004395
-0.5251464844
-0.5314331055
-0.5430297852
-0.5393371582
-0.5325012207
-0.5315246582
-0.5311889648
-0.5261230469
-0.5151062012
-0.5096130371
-0.523651123
-0.5447692871
-0.5418395996
-0.5274353027
-0.5273742676
-0.5364074707
-0.5362548828
-0.5129089355
-0.4896850586
-0.4690551758
-0.439239502
-0.4448242188
-0.4622192383
-0.4541320801
-0.4489440918
-0.4504699707
-0.4482116699
-0.4476013184
-0.456237793
-0.4773864746
-0.4919433594
-0.4869995117
-0.4781494141
-0.4895935059
-0.521270752
-0.5351257324
-0.5361022949
-0.5542602539
-0.5914611816
-0.6114807129
-0.5965270996
-0.5624389648
-0.5433959961
-0.5759277344
-0.608001709
-0.5640869141
-0.4880981445
-0.4443359375
-0.4385986328
-0.3603210449
-0.2425231934
-0.1445922852
0.0008544921875
0.2592163086
0.5473632812
0.7426147461
0.8778381348
0.7822265625
0.671081543
0.4074401855
-0.1122741699
-0.5994567871
-0.8699645996
-0.8389282227
-0.8307495117
-0.7192382812
-0.5350036621
-0.4451599121
-0.4415588379
-0.4857788086
-0.4560546875
-0.4216918945
-0.4248657227
-0.4523925781
-0.479888916
-0.4736022949
-0.4564819336
-0.4508056641
-0.4638061523
-0.4780273438
-0.4665527344
-0.4376831055
-0.4291687012
-0.4419250488
-0.4335021973
-0.4107971191
-0.391784668
-0.3758544922
-0.3782348633
-0.3742675781
-0.3490905762
-0.3388366699
-0.3301696777
-0.3088684082
-0.2681884766
-0.225769043
-0.2070007324
-0.1750183105
-0.1265563965
-0.08551025391
-0.06881713867
-0.04833984375
-0.01519775391
0.02053833008
0.05416870117
0.07403564453
0.08865356445
0.08892822266
0.1190185547
0.1275024414
0.109161377
0.1181945801
0.1179199219
0.118347168
0.1047973633
0.08001708984
0.04690551758
0.002685546875
-0.02459716797
-0.04959106445
-0.09545898438
-0.1393432617
-0.1735229492
-0.2171020508
-0.2532653809
-0.2795410156
-0.3063049316
-0.3236083984
-0.3479919434
-0.3924255371
-0.4115905762
-0.4155578613
-0.4318847656
-0.4447937012
-0.4541931152
-0.4450683594
-0.4378051758
-0.4422912598
-0.4583740234
-0.463684082
-0.4562072754
-0.466583252
-0.4672851562
-0.4756164551
-0.4678649902
-0.4556884766
-0.4600219727
-0.4451293945
-0.434173584
-0.4442138672
-0.4553833008
-0.4644165039
-0.4790649414
-0.4774169922
-0.470916748
-0.4689025879
-0.4741516113
-0.4771728516
-0.4718322754
-0.4708251953
-0.4607543945
-0.4394836426
-0.428894043
-0.4355773926
-0.4417114258
-0.4422912598
-0.4398498535
-0.4319152832
-0.4188842773
-0.4232177734
-0.4461669922
-0.468536377
-0.4871520996
-0.4927368164
-0.4881896973
-0.4940490723
-0.4975280762
-0.5013122559
-0.5126953125
-0.5125732422
-0.5184631348
-0.5263671875
-0.5249633789
-0.5296325684
-0.5413208008
-0.5442810059
-0.5433959961
-0.5363464355
-0.5327148438
-0.5273742676
-0.5172424316
-0.5274658203
-0.5355529785
-0.5402526855
-0.544921875
-0.541015625
-0.5310668945
-0.5258483887
-0.5196838379
-0.5153198242
-0.5210266113
-0.519744873
-0.529296875
-0.5394897461
-0.5322570801
-0.5285339355
-0.5246582031
-0.5354614258
-0.5533752441
-0.5625610352
-0.5682983398
-0.5618286133
-0.5642700195
-0.5599060059
-0.559387207
-0.5624084473
-0.5522766113
-0.5499572754
-0.5480041504
-0.5521850586
-0.5455322266
-0.5574951172
-0.5755004883
-0.5566711426
-0.5704345703
-0.5861816406
-0.5838928223
-0.592590332
-0.5832214355
-0.5823669434
-0.5925598145
-0.5882568359
-0.5895385742
-0.5843200684
-0.5780334473
-0.5801391602
-0.5653991699
-0.5527954102
-0.5415039062
-0.5447387695
-0.5433044434
-0.5249023438
-0.5109863281
-0.4849853516
-0.4643249512
-0.466796875
-0.4938049316
-0.5027160645
-0.4847717285
-0.4973754883
-0.5110473633
-0.5125732422
-0.5245056152
-0.545715332
-0.5664978027
-0.5550231934
-0.540802002
-0.5500488281
-0.5686950684
-0.5747375488
-0.5682067871
-0.5533752441
-0.5640869141
-0.5929870605
-0.5816650391
-0.5548706055
-0.5490722656
-0.5771179199
-0.6058959961
-0.5880432129
-0.5391235352
-0.4872741699
-0.480682373
-0.4387512207
-0.3168334961
-0.198425293
-0.06384277344
0.1791381836
0.4880371094
0.6811218262
0.8414306641
0.8020629883
0.6792297363
0.4652709961
-0.01879882812
-0.5163879395
-0.8569335938
-0.8710632324
-0.841217041
-0.7479553223
-0.5528869629
-0.4382019043
-0.4180297852
-0.4569091797
-0.4375305176
-0.3929443359
-0.376159668
-0.3937988281
-0.4206237793
-0.420501709
-0.3876953125
-0.3862609863
-0.4108886719
-0.4231262207
-0.4172363281
-0.4020690918
-0.3989868164
-0.4044189453
-0.4121398926
-0.4000549316
-0.3741149902
-0.3620605469
-0.3566589355
-0.3408813477
-0.3252868652
-0.3118591309
-0.2891235352
-0.2520446777
-0.202331543
-0.1797485352
-0.1730651855
-0.1427001953
-0.1128540039
-0.07763671875
-0.03207397461
0.002685546875
0.03247070312
0.07498168945
0.1132507324
0.1324768066
0.1446228027
0.1551818848
0.1759643555
0.1973571777
0.2091369629
0.2001953125
0.1810302734
0.1700439453
0.1486206055
0.1099243164
0.08392333984
0.06097412109
0.03179931641
-0.01217651367
-0.06259155273
-0.1040344238
-0.1484985352
-0.1880187988
-0.2219848633
-0.2531738281
-0.2823181152
-0.3050231934
-0.3341369629
-0.3745422363
-0.3928833008
-0.3917541504
-0.4121398926
-0.4266662598
-0.4274902344
-0.4385986328
-0.4400024414
-0.440246582
-0.4437561035
-0.4434204102
-0.4482727051
-0.4481201172
-0.4451599121
-0.4492492676
-0.4506225586
-0.4326782227
-0.4209899902
-0.4290466309
-0.4274902344
-0.4211120605
-0.4156188965
-0.4178161621
-0.418548584
-0.4008789062
-0.3926696777
-0.3944091797
-0.390838623
-0.3847351074
-0.3807983398
-0.3903808594
-0.4021606445
-0.3971862793
-0.4036865234
-0.4013061523
-0.389465332
-0.3950195312
-0.3850402832
-0.3822631836
-0.3943481445
-0.4054260254
-0.4167175293
-0.433807373
-0.453338623
-0.4596557617
-0.4661254883
-0.47265625
-0.4797973633
-0.4972839355
-0.500579834
-0.5041503906
-0.5188903809
-0.5156555176
-0.5234985352
-0.5416259766
-0.5411071777
-0.5409851074
-0.5457458496
-0.5397033691
-0.5279846191
-0.5294189453
-0.5296630859
-0.5154724121
-0.5115356445
-0.5127563477
-0.5132141113
-0.5191955566
-0.5245056152
-0.5361328125
-0.5344543457
-0.5202941895
-0.5283203125
-0.5284729004
-0.5291748047
-0.5507202148
-0.5579223633
-0.5606689453
-0.5573425293
-0.5516052246
-0.5454711914
-0.5364074707
-0.529510498
-0.5234985352
-0.524230957
-0.5110168457
-0.5059509277
-0.5216674805
-0.5273742676
-0.5269470215
-0.527923584
-0.5294494629
-0.5300598145
-0.5357666016
-0.5347900391
-0.5296936035
-0.5487365723
-0.5670471191
-0.5593566895
-0.5603942871
-0.5695495605
-0.5550231934
-0.5516662598
-0.5604553223
-0.5631713867
-0.575958252
-0.5729370117
-0.555267334
-0.5524902344
-0.550567627
-0.5590515137
-0.570526123
-0.5596618652
-0.550994873
-0.5534973145
-0.5520629883
-0.5523681641
-0.5260620117
-0.5136413574
-0.5286254883
-0.5185852051
-0.5316772461
-0.5406494141
-0.5215148926
-0.5190124512
-0.5144348145
-0.5068054199
-0.5197143555
-0.5317993164
-0.5478210449
-0.553894043
-0.5511474609
-0.5510253906
-0.554107666
-0.5592346191
-0.5462036133
-0.5436401367
-0.5640563965
-0.5912780762
-0.5868530273
-0.5467224121
-0.5358886719
-0.5658874512
-0.587890625
-0.5757751465
-0.5246582031
-0.4743041992
-0.488861084
-0.4382629395
-0.3002929688
-0.1705627441
-0.01153564453
0.2604064941
0.5691833496
0.7886657715
0.9459228516
0.8573608398
0.7363891602
0.4932556152
-0.02307128906
-0.5411987305
-0.8499755859
-0.8404846191
-0.8392333984
-0.7565002441
-0.5684814453
-0.4647521973
-0.4559326172
-0.4833374023
-0.4689025879
-0.4256591797
-0.4098815918
-0.4546203613
-0.4814758301
-0.4643859863
-0.4365844727
-0.4247436523
-0.4358825684
-0.4506225586
-0.4257507324
-0.3892822266
-0.380065918
-0.3799133301
-0.374420166
-0.3587036133
-0.348236084
-0.3435668945
-0.3297729492
-0.3160705566
-0.3016357422
-0.2866516113
-0.273223877
-0.2401123047
-0.1943664551
-0.1580505371
-0.1405944824
-0.122253418
-0.08514404297
-0.04858398438
-0.02020263672
0.005218505859
0.03466796875
0.07907104492
0.1084899902
0.1205749512
0.1340026855
0.1527709961
0.1792602539
0.178894043
0.1682434082
0.1663818359
0.1533813477
0.1382446289
0.1378173828
0.1146240234
0.07690429688
0.05181884766
0.01428222656
-0.02731323242
-0.05981445312
-0.08926391602
-0.1312255859
-0.1755371094
-0.2160339355
-0.2525634766
-0.2878723145
-0.3241882324
-0.3520812988
-0.3834228516
-0.407043457
-0.4169006348
-0.4288024902
-0.4420776367
-0.4538574219
-0.4677124023
-0.4790344238
-0.4902954102
-0.5017089844
-0.4981994629
-0.4962463379
-0.4913330078
-0.4809875488
-0.4766845703
-0.467956543
-0.4647827148
-0.452911377
-0.4367980957
-0.4531555176
-0.4577941895
-0.4454040527
-0.4510192871
-0.4487915039
-0.4525756836
-0.4683227539
-0.4583129883
-0.4599609375
-0.455291748
-0.4444274902
-0.4476013184
-0.4419555664
-0.4540100098
-0.4458312988
-0.4321594238
-0.4136352539
-0.414642334
-0.4283447266
-0.4264526367
-0.4360351562
-0.4390563965
-0.4422302246
-0.4477233887
-0.4763793945
-0.4959106445
-0.5014953613
-0.5230407715
-0.5398254395
-0.541015625
-0.5280761719
-0.5366210938
-0.5465393066
-0.5500793457
-0.5575866699
-0.5593261719
-0.557800293
-0.5474243164
-0.5455627441
-0.5436401367
-0.5383911133
-0.5379638672
-0.5317077637
-0.520904541
-0.5304260254
-0.5407714844
-0.5505981445
-0.5634460449
-0.5580749512
-0.5606689453
-0.564239502
-0.5592956543
-0.5642089844
-0.5569152832
-0.5354309082
-0.539855957
-0.5548095703
-0.5663146973
-0.5682678223
-0.5652770996
-0.5748596191
-0.5747070312
-0.5685424805
-0.559753418
-0.567199707
-0.5708618164
-0.5671691895
-0.568572998
-0.5587463379
-0.5623168945
-0.5594482422
-0.5577392578
-0.5495910645
-0.5458068848
-0.5571899414
-0.5493164062
-0.5375061035
-0.5273132324
-0.5439453125
-0.5459594727
-0.5346374512
-0.544128418
-0.5479736328
-0.5670776367
-0.5699462891
-0.5574951172
-0.5386657715
-0.5383300781
-0.5541687012
-0.5507507324
-0.5429077148
-0.5250549316
-0.5298156738
-0.5243835449
-0.5186462402
-0.5405883789
-0.5329589844
-0.5237426758
-0.5229797363
-0.5094299316
-0.5093688965
-0.5151367188
-0.5401000977
-0.5471191406
-0.5335693359
-0.5411376953
-0.5349121094
-0.5436706543
-0.5520629883
-0.5473937988
-0.5661621094
-0.5950317383
-0.599395752
-0.5618286133
-0.5357971191
-0.5663757324
-0.6092834473
-0.5844116211
-0.5236206055
-0.4645996094
-0.4486083984
-0.420715332
-0.2874755859
-0.1670837402
-0.02911376953
0.1971130371
0.4862060547
0.7318115234
0.9333190918
0.9352722168
0.7875671387
0.5850219727
0.1468811035
-0.4237976074
-0.8405456543
-0.852935791
-0.832611084
-0.7999267578
-0.6466369629
-0.5263671875
-0.4612426758
-0.5003662109
-0.4967041016
-0.4510192871
-0.4306945801
-0.4407958984
-0.4706420898
-0.4613342285
-0.4154968262
-0.4058837891
-0.4410705566
-0.4645996094
-0.4571228027
-0.4319152832
-0.4120788574
-0.4164733887
-0.4254760742
-0.4041137695
-0.3916931152
-0.3889160156
-0.3631896973
-0.34765625
-0.3302612305
-0.2999572754
-0.2722167969
-0.2543029785
-0.2281188965
-0.1915588379
-0.1688232422
-0.1594848633
-0.1387939453
-0.1009521484
-0.07165527344
-0.04330444336
-0.005645751953
0.03472900391
0.08590698242
0.1204223633
0.1367797852
0.1636047363
0.1905822754
0.2189331055
0.2327575684
0.2205810547
0.2059326172
0.2124023438
0.193359375
0.1502380371
0.1220092773
0.08145141602
0.05532836914
0.02359008789
-0.009704589844
-0.04406738281
-0.08847045898
-0.1118164062
-0.1557617188
-0.1987915039
-0.234954834
-0.265045166
-0.2892456055
-0.3333435059
-0.3591003418
-0.364440918
-0.3746337891
-0.405670166
-0.4266357422
-0.4287719727
-0.4436035156
-0.4526062012
-0.4567871094
-0.4616699219
-0.4588012695
-0.4478149414
-0.4472351074
-0.4596862793
-0.4531860352
-0.4429931641
-0.440246582
-0.4332275391
-0.4368591309
-0.436706543
-0.4230957031
-0.4185791016
-0.4206848145
-0.419342041
-0.4165344238
-0.4197692871
-0.4179077148
-0.4125976562
-0.4103088379
-0.4122619629
-0.4296264648
-0.4463195801
-0.4499816895
-0.4393615723
-0.4332580566
-0.433013916
-0.4329223633
-0.4313049316
-0.4297180176
-0.4311828613
-0.4300537109
-0.4416809082
-0.4519042969
-0.4488525391
-0.460144043
-0.4781188965
-0.4903259277
-0.500213623
-0.5073852539
-0.5331726074
-0.5372619629
-0.5220336914
-0.5251159668
-0.5173034668
-0.5059509277
-0.5045776367
-0.5094909668
-0.5121765137
-0.513092041
-0.5184326172
-0.513671875
-0.5094299316
-0.5277099609
-0.5410461426
-0.5412597656
-0.5414733887
-0.5359802246
-0.5303039551
-0.5327148438
-0.5375976562
-0.5364074707
-0.5340881348
-0.5336914062
-0.5370788574
-0.5264587402
-0.5195922852
-0.535949707
-0.5416870117
-0.5399475098
-0.5455627441
-0.5416259766
-0.5395812988
-0.5382385254
-0.5325927734
-0.5356445312
-0.5269775391
-0.5244445801
-0.5338439941
-0.5393066406
-0.5448608398
-0.5487976074
-0.5545654297
-0.5531005859
-0.5425415039
-0.5467834473
-0.5495605469
-0.5362854004
-0.5268859863
-0.5231628418
-0.5335998535
-0.5619506836
-0.5697937012
-0.5606689453
-0.5516357422
-0.5450134277
-0.5501098633
-0.5422973633
-0.5330505371
-0.5175170898
-0.5072631836
-0.5085144043
-0.5128479004
-0.5249023438
-0.5131225586
-0.5119628906
-0.5249328613
-0.5269165039
-0.5432739258
-0.5536499023
-0.573059082
-0.5747375488
-0.5667419434
-0.576965332
-0.5691223145
-0.5747070312
-0.5734863281
-0.5760803223
-0.5978088379
-0.6318664551
-0.6415100098
-0.5936584473
-0.5732116699
-0.599029541
-0.6405944824
-0.6371765137
-0.575378418
-0.5139160156
-0.524017334
-0.4919433594
-0.3657531738
-0.2464294434
-0.09582519531
0.1549987793
0.4783935547
0.7034912109
0.8731994629
0.8086547852
0.6694030762
0.4334411621
-0.08245849609
-0.6117553711
-0.9757995605
-0.9736633301
-0.9304504395
-0.8457336426
-0.6561584473
-0.5362854004
-0.5094299316
-0.542175293
-0.5275878906
-0.4803161621
-0.4600830078
-0.5008544922
-0.5284423828
-0.5163269043
-0.4880371094
-0.4697570801
-0.4726867676
-0.4810791016
-0.4747314453
-0.4502563477
-0.4344177246
-0.4344177246
-0.4264526367
-0.4031677246
-0.3893432617
-0.3860473633
-0.3836364746
-0.3724365234
-0.3511047363
-0.3304748535
-0.3020629883
-0.2676086426
-0.2358398438
-0.201171875
-0.168548584
-0.1471862793
-0.1243896484
-0.08834838867
-0.05087280273
-0.02114868164
0.02685546875
0.07629394531
0.1137695312
0.1400756836
0.1471252441
0.164276123
0.1861877441
0.2102050781
0.2190856934
0.2094116211
0.1956481934
0.1845703125
0.1783447266
0.1582641602
0.1288452148
0.1029663086
0.07427978516
0.03454589844
-0.02752685547
-0.08493041992
-0.1198730469
-0.1600646973
-0.1882019043
-0.2275695801
-0.2594909668
-0.2799377441
-0.3153991699
-0.3359069824
-0.3541259766
-0.3627319336
-0.3672180176
-0.392364502
-0.4081115723
-0.4027404785
-0.4069824219
-0.4168701172
-0.4384765625
-0.4483337402
-0.4442138672
-0.4452209473
-0.4310302734
-0.4366455078
-0.4405517578
-0.4320068359
-0.4303588867
-0.4152832031
-0.406463623
-0.4116516113
-0.4127807617
-0.4202880859
-0.4283752441
-0.4154052734
-0.4047851562
-0.3996582031
-0.4010925293
-0.4089660645
-0.4128112793
-0.4248046875
-0.4245605469
-0.4190063477
-0.420501709
-0.4135437012
-0.4021606445
-0.4018554688
-0.3988647461
-0.4097290039
-0.4202880859
-0.4196166992
-0.4449157715
-0.4482421875
-0.4545898438
-0.4625854492
-0.4632263184
-0.4723510742
-0.4734191895
-0.4808654785
-0.4888305664
-0.5038452148
-0.5139770508
-0.5224609375
-0.5364685059
-0.5278015137
-0.5190734863
-0.5226135254
-0.516784668
-0.5245361328
-0.5303955078
-0.5369262695
-0.5416564941
-0.5399475098
-0.5563659668
-0.5537414551
-0.5469665527
-0.5532226562
-0.5553894043
-0.546295166
-0.5437011719
-0.5458068848
-0.5387268066
-0.5391845703
-0.5297241211
-0.5355224609
-0.5511779785
-0.5471801758
-0.549407959
-0.5438537598
-0.5264282227
-0.5393981934
-0.5545959473
-0.5479431152
-0.5344238281
-0.5227355957
-0.5236816406
-0.5233764648
-0.5229492188
-0.5283813477
-0.537689209
-0.5348510742
-0.5238342285
-0.5258483887
-0.5335083008
-0.5338134766
-0.5260314941
-0.5169372559
-0.5248718262
-0.5534057617
-0.5657348633
-0.5641784668
-0.5555725098
-0.5476989746
-0.5638122559
-0.5690002441
-0.5526428223
-0.535369873
-0.521484375
-0.5205993652
-0.5382385254
-0.5467224121
-0.5504760742
-0.5425415039
-0.5215148926
-0.5184936523
-0.5224304199
-0.5384216309
-0.5575561523
-0.5615844727
-0.553894043
-0.5653991699
-0.5733947754
-0.5674438477
-0.573638916
-0.5571289062
-0.5569458008
-0.5864868164
-0.6131591797
-0.6143493652
-0.5747680664
-0.572265625
-0.614654541
-0.6164550781
-0.5832519531
-0.5314025879
-0.492401123
-0.498046875
-0.4058532715
-0.2654418945
-0.1491699219
0.0224609375
0.3280334473
0.6109924316
0.8304748535
0.9456176758
0.8186950684
0.6893310547
0.3121948242
-0.2650756836
-0.7548217773
-0.9415893555
-0.888092041
-0.871673584
-0.7194824219
-0.5377197266
-0.4590454102
-0.4902954102
-0.5205383301
-0.4786682129
-0.4471130371
-0.4530029297
-0.4854125977
-0.4883117676
-0.4574279785
-0.4421691895
-0.4467773438
-0.4623718262
-0.4636230469
-0.4381103516
-0.4233703613
-0.4159240723
-0.4013671875
-0.3875732422
-0.3742980957
-0.3664550781
-0.3615112305
-0.3644104004
-0.3516235352
-0.3251037598
-0.3114318848
-0.2954101562
-0.2682189941
-0.2430725098
-0.2147216797
-0.1790466309
-0.1524963379
-0.122253418
-0.09310913086
-0.06973266602
-0.0481262207
-0.01110839844
0.03985595703
0.07778930664
0.09292602539
0.09799194336
0.1280212402
0.1559448242
0.1544494629
0.1672363281
0.1658325195
0.1416015625
0.1478881836
0.126739502
0.08795166016
0.06838989258
0.02975463867
-0.009887695312
-0.03601074219
-0.07495117188
-0.1203613281
-0.1525878906
-0.1904602051
-0.230255127
-0.2793579102
-0.3045043945
-0.3214111328
-0.3616638184
-0.3785705566
-0.4002380371
-0.432434082
-0.4515686035
-0.4722595215
-0.4888000488
-0.4847412109
-0.4740905762
-0.4709472656
-0.4812927246
-0.4883117676
-0.488494873
-0.4839782715
-0.4781799316
-0.478515625
-0.4638061523
-0.4386291504
-0.4213562012
-0.4193725586
-0.4243774414
-0.4220275879
-0.4241333008
-0.4342346191
-0.4313354492
-0.430847168
-0.4352416992
-0.4410705566
-0.4512329102
-0.4432678223
-0.4375915527
-0.4301757812
-0.4140319824
-0.4179077148
-0.4228515625
-0.4169616699
-0.4143981934
-0.4247131348
-0.4300842285
-0.4347229004
-0.4482421875
-0.4471435547
-0.4598083496
-0.4756469727
-0.4866333008
-0.4909667969
-0.4854125977
-0.5060424805
-0.5166625977
-0.5234985352
-0.5384521484
-0.5550231934
-0.5552062988
-0.5413208008
-0.5450134277
-0.5478210449
-0.5517883301
-0.5522460938
-0.5528564453
-0.5447692871
-0.5440368652
-0.5396728516
-0.5395507812
-0.5534667969
-0.5348510742
-0.5325317383
-0.5456237793
-0.5500793457
-0.5573120117
-0.5537414551
-0.5543212891
-0.5619812012
-0.5647888184
-0.5436096191
-0.533782959
-0.5517883301
-0.5522155762
-0.5533447266
-0.5563354492
-0.5627746582
-0.5581054688
-0.5476989746
-0.5532836914
-0.5527038574
-0.5628662109
-0.5766296387
-0.5716247559
-0.5677185059
-0.5718383789
-0.5854187012
-0.5883789062
-0.5740356445
-0.5747070312
-0.5795898438
-0.573425293
-0.5686645508
-0.5635986328
-0.5511779785
-0.5543823242
-0.5559387207
-0.5415649414
-0.5234375
-0.494934082
-0.4846191406
-0.4998168945
-0.5154418945
-0.5051879883
-0.5002441406
-0.5114746094
-0.5065612793
-0.5075073242
-0.5208435059
-0.5456237793
-0.5602722168
-0.5489501953
-0.5341491699
-0.5363769531
-0.5508422852
-0.5632019043
-0.5574035645
-0.5540466309
-0.5841674805
-0.6067199707
-0.5901184082
-0.559387207
-0.5631103516
-0.5930786133
-0.6070861816
-0.5799255371
-0.524597168
-0.4757385254
-0.4692077637
-0.4218139648
-0.2976074219
-0.1859741211
-0.01611328125
0.2254638672
0.4934692383
0.7658691406
0.9253540039
0.8691101074
0.7008666992
0.4619140625
-0.004119873047
-0.602142334
-0.8571777344
-0.8257446289
-0.8563842773
-0.7977294922
-0.6580505371
-0.5578613281
-0.5397338867
-0.5543212891
-0.5225830078
-0.4822387695
-0.4691162109
-0.5000305176
-0.5246887207
-0.4937133789
-0.4541320801
-0.4418334961
-0.4600830078
-0.4808349609
-0.4654541016
-0.4417419434
-0.4336242676
-0.4297790527
-0.4133300781
-0.391784668
-0.3624267578
-0.3438720703
-0.3308410645
-0.3125915527
-0.2966918945
-0.2814331055
-0.2635498047
-0.2421569824
-0.2152099609
-0.1794128418
-0.1640625
-0.145324707
-0.113861084
-0.08389282227
-0.05740356445
-0.04711914062
-0.03659057617
-0.009887695312
0.01089477539
0.02764892578
0.05139160156
0.05667114258
0.06887817383
0.08288574219
0.07369995117
0.06970214844
0.07244873047
0.07443237305
0.07073974609
0.05349731445
0.02685546875
0.005218505859
-0.01727294922
-0.05078125
-0.08984375
-0.1301574707
-0.1578674316
-0.1896972656
-0.2202758789
-0.2397766113
-0.2756652832
-0.2977294922
-0.3167419434
-0.3595581055
-0.3919677734
-0.4110107422
-0.4274291992
-0.4463500977
-0.4591369629
-0.4601135254
-0.4578857422
-0.4662780762
-0.4721984863
-0.4689025879
-0.4671936035
-0.4556884766
-0.4539794922
-0.449005127
-0.4417419434
-0.4475097656
-0.4443664551
-0.4513549805
-0.4578857422
-0.4621582031
-0.4601745605
-0.4418334961
-0.4334411621
-0.4317016602
-0.4248657227
-0.4151306152
-0.4184265137
-0.4233093262
-0.4289245605
-0.4319763184
-0.4233398438
-0.4281921387
-0.4371643066
-0.4354858398
-0.4274291992
-0.4280090332
-0.4387512207
-0.450012207
-0.4535217285
-0.4601745605
-0.4722290039
-0.4786987305
-0.4862060547
-0.4844970703
-0.4958496094
-0.5015563965
-0.5000610352
-0.5110778809
-0.507598877
-0.5140991211
-0.5322875977
-0.5313415527
-0.5180664062
-0.5161437988
-0.5180053711
-0.5296020508
-0.5372924805
-0.5295715332
-0.5315856934
-0.5323181152
-0.5273742676
-0.5242004395
-0.5210266113
-0.5233154297
-0.5336608887
-0.5369567871
-0.5343017578
-0.5237426758
-0.5210266113
-0.522277832
-0.5191040039
-0.5272827148
-0.5282287598
-0.5372619629
-0.5419006348
-0.5327758789
-0.535369873
-0.5473937988
-0.5541992188
-0.5356140137
-0.5322265625
-0.5431213379
-0.5534057617
-0.568939209
-0.565246582
-0.5574951172
-0.549621582
-0.5472412109
-0.5471191406
-0.530090332
-0.5189208984
-0.5254821777
-0.5203552246
-0.5018920898
-0.4976196289
-0.4940490723
-0.4864501953
-0.5039978027
-0.5226135254
-0.5335083008
-0.5241394043
-0.5034790039
-0.5230407715
-0.5288085938
-0.532409668
-0.5702514648
-0.5811157227
-0.5713500977
-0.5608520508
-0.5588378906
-0.5767822266
-0.5936279297
-0.600769043
-0.5880126953
-0.5945129395
-0.6237792969
-0.613494873
-0.578125
-0.5585021973
-0.5955200195
-0.6492004395
-0.6306762695
-0.5790710449
-0.5310974121
-0.5210876465
-0.4526367188
-0.3108825684
-0.2034301758
-0.05288696289
0.1836547852
0.4725646973
0.709564209
0.865020752
0.7945251465
0.649230957
0.4320373535
-0.04272460938
-0.5786437988
-0.861114502
-0.8433227539
-0.8732299805
-0.7956848145
-0.6376037598
-0.5553283691
-0.5173950195
-0.5493164062
-0.5330200195
-0.4916992188
-0.4736022949
-0.4966125488
-0.5255126953
-0.509185791
-0.4808349609
-0.478729248
-0.503326416
-0.5124816895
-0.4876403809
-0.4533691406
-0.4333190918
-0.4270629883
-0.4177246094
-0.3994750977
-0.3751525879
-0.3734130859
-0.3829956055
-0.3692626953
-0.3583374023
-0.3450012207
-0.318145752
-0.2941589355
-0.2669372559
-0.2415161133
-0.2199401855
-0.1914978027
-0.1624755859
-0.1247253418
-0.08895874023
-0.07836914062
-0.0451965332
-0.004425048828
0.02618408203
0.05276489258
0.05551147461
0.07312011719
0.09317016602
0.1036376953
0.1178283691
0.1109008789
0.09451293945
0.08963012695
0.07968139648
0.04846191406
0.01724243164
-0.006927490234
-0.03610229492
-0.06140136719
-0.08987426758
-0.1185913086
-0.1408996582
-0.1580200195
-0.1869506836
-0.2389526367
-0.2741699219
-0.3032226562
-0.3455505371
-0.3861083984
-0.3982849121
-0.409576416
-0.4316711426
-0.4370117188
-0.4580688477
-0.475982666
-0.4767456055
-0.4814453125
-0.4768371582
-0.458984375
-0.4561767578
-0.4505004883
-0.4438171387
-0.4567565918
-0.4637145996
-0.4434509277
-0.4193115234
-0.417388916
-0.4188537598
-0.4158325195
-0.4080810547
-0.4072875977
-0.4147644043
-0.4205932617
-0.4166259766
-0.4193115234
-0.4166564941
-0.4140014648
-0.421295166
-0.4203491211
-0.4313964844
-0.436340332
-0.4379882812
-0.4259033203
-0.4133911133
-0.4088439941
-0.3976745605
-0.4006347656
-0.3984069824
-0.4069824219
-0.4211120605
-0.4352722168
-0.4474487305
-0.4511413574
-0.4639587402
-0.473236084
-0.4876098633
-0.497253418
-0.4960632324
-0.4971618652
-0.503326416
-0.5066833496
-0.5169372559
-0.524230957
-0.5265808105
-0.5373840332
-0.5307312012
-0.5271911621
-0.5161743164
-0.5121154785
-0.5234985352
-0.5181884766
-0.516418457
-0.5107421875
-0.507598877
-0.518371582
-0.5168762207
-0.5064086914
-0.5079040527
-0.5131835938
-0.5040283203
-0.505859375
-0.5148925781
-0.5066833496
-0.508392334
-0.4995117188
-0.5059814453
-0.5254821777
-0.5225524902
-0.530090332
-0.5269165039
-0.5111083984
-0.5181884766
-0.525390625
-0.5287780762
-0.5217895508
-0.5022277832
-0.5149841309
-0.5269165039
-0.528717041
-0.5139465332
-0.5016174316
-0.4995727539
-0.4817199707
-0.4715270996
-0.4552001953
-0.4390869141
-0.4376525879
-0.4593505859
-0.4760131836
-0.4927978516
-0.5065307617
-0.5065612793
-0.521484375
-0.5331420898
-0.546661377
-0.5747375488
-0.578338623
-0.552734375
-0.5369567871
-0.5450439453
-0.5598144531
-0.5628662109
-0.5669250488
-0.5569763184
-0.5707702637
-0.599029541
-0.5811157227
-0.5562438965
-0.5532531738
-0.588104248
-0.6163024902
-0.5833435059
-0.5187072754
-0.4733886719
-0.4710998535
-0.385559082
-0.2500610352
-0.1320495605
0.02639770508
0.3125
0.6009521484
0.7972717285
0.9116821289
0.791595459
0.6625976562
0.3426208496
-0.1897583008
-0.6791992188
-0.9174499512
-0.8819580078
-0.8602905273
-0.7233886719
-0.5634155273
-0.483215332
-0.4957580566
-0.5379638672
-0.5108032227
-0.4665527344
-0.4561462402
-0.4833374023
-0.4924926758
-0.474822998
-0.442779541
-0.4528503418
-0.4749450684
-0.4776000977
-0.4768371582
-0.4420776367
-0.4298095703
-0.4347229004
-0.415802002
-0.3965454102
-0.3791809082
-0.3698730469
-0.3616638184
-0.3584289551
-0.3457946777
-0.3152770996
-0.2945556641
-0.2651367188
-0.2291259766
-0.2008056641
-0.1799621582
-0.1635742188
-0.1227111816
-0.0768737793
-0.05252075195
-0.0378112793
-0.002410888672
0.04470825195
0.08395385742
0.1138305664
0.1279296875
0.1604614258
0.1805114746
0.1875305176
0.1963195801
0.183807373
0.1823425293
0.1820678711
0.1509094238
0.1236877441
0.08749389648
0.03610229492
0.01428222656
-0.03558349609
-0.07891845703
-0.1122131348
-0.1680908203
-0.2028808594
-0.2435913086
-0.2740783691
-0.2872314453
-0.3165588379
-0.3503723145
-0.3722839355
-0.398223877
-0.4102783203
-0.4138183594
-0.4372253418
-0.4443359375
-0.4520263672
-0.4687194824
-0.4781188965
-0.4880371094
-0.4854431152
-0.4842834473
-0.4890136719
-0.4921875
-0.4926147461
-0.4924316406
-0.480255127
-0.4646606445
-0.4483337402
-0.4313964844
-0.4280395508
-0.4175720215
-0.4150085449
-0.417175293
-0.4171142578
-0.4165344238
-0.4057006836
-0.4018554688
-0.3942565918
-0.3902893066
-0.4057312012
-0.4090881348
-0.4028320312
-0.400177002
-0.3977661133
-0.3980102539
-0.398651123
-0.4090270996
-0.4095153809
-0.4102783203
-0.419342041
-0.435333252
-0.4552001953
-0.4561767578
-0.4605407715
-0.4580383301
-0.4676818848
-0.4871520996
-0.4956359863
-0.5065612793
-0.5021972656
-0.5138549805
-0.5139770508
-0.5131835938
-0.5218811035
-0.5132751465
-0.5092163086
-0.5014953613
-0.5146789551
-0.5310058594
-0.5356750488
-0.5268554688
-0.5260925293
-0.5385437012
-0.5400390625
-0.5443725586
-0.5505065918
-0.5541992188
-0.5562438965
-0.5604248047
-0.5641479492
-0.5668029785
-0.5684814453
-0.5732421875
-0.5738830566
-0.5634155273
-0.5518188477
-0.5438537598
-0.5317993164
-0.5246887207
-0.5305786133
-0.540435791
-0.5402526855
-0.5343322754
-0.5311889648
-0.5376281738
-0.5458068848
-0.5575256348
-0.5691833496
-0.5541992188
-0.5596008301
-0.5777893066
-0.5679626465
-0.559387207
-0.564666748
-0.5665893555
-0.5557556152
-0.5345458984
-0.5135803223
-0.4994812012
-0.4946594238
-0.5140075684
-0.5294189453
-0.5161437988
-0.5093688965
-0.5076293945
-0.5178222656
-0.5275268555
-0.5252685547
-0.5682067871
-0.5790405273
-0.5518493652
-0.5536804199
-0.5605163574
-0.5715942383
-0.5718078613
-0.5592346191
-0.5541381836
-0.5829772949
-0.606262207
-0.5938110352
-0.5641784668
-0.571685791
-0.6162414551
-0.613067627
-0.5620117188
-0.5014953613
-0.4739685059
-0.46875
-0.3826599121
-0.2575378418
-0.1426086426
0.03314208984
0.3290100098
0.6008300781
0.8282775879
0.9333496094
0.7997741699
0.6567993164
0.3082885742
-0.2420043945
-0.7496948242
-0.9144592285
-0.8687744141
-0.8792419434
-0.7403564453
-0.5802001953
-0.4952697754
-0.5174865723
-0.5347290039
-0.4995117188
-0.4840698242
-0.4821777344
-0.5068359375
-0.5267333984
-0.5162353516
-0.4901428223
-0.5042114258
-0.5270385742
-0.5193786621
-0.4803466797
-0.4402770996
-0.4406433105
-0.4445800781
-0.4278564453
-0.4044799805
-0.3973388672
-0.3891601562
-0.3847045898
-0.380645752
-0.3506469727
-0.3336181641
-0.3243408203
-0.3005371094
-0.2750549316
-0.2558288574
-0.2325439453
-0.2001953125
-0.1659545898
-0.146484375
-0.1312561035
-0.1026306152
-0.07040405273
-0.01232910156
0.01852416992
0.0290222168
0.03707885742
0.02499389648
0.07211303711
0.07901000977
0.05880737305
0.07116699219
0.06079101562
0.05511474609
0.04547119141
0.0124206543
-0.02526855469
-0.04541015625
-0.07461547852
-0.09213256836
-0.1132507324
-0.1524353027
-0.1840820312
-0.225982666
-0.2702026367
-0.2975769043
-0.3150939941
-0.353729248
-0.400604248
-0.4324645996
-0.4501342773
-0.4511108398
-0.4618225098
-0.4775695801
-0.483215332
-0.484954834
-0.4761657715
-0.4750366211
-0.4760437012
-0.4703979492
-0.4707946777
-0.4692077637
-0.4696960449
-0.4707336426
-0.4515686035
-0.4339904785
-0.4277954102
-0.4161376953
-0.4049682617
-0.4119262695
-0.4325866699
-0.4338989258
-0.4360046387
-0.4353942871
-0.423248291
-0.4116210938
-0.4048461914
-0.391784668
-0.3670959473
-0.3665466309
-0.3787841797
-0.3872680664
-0.3873901367
-0.3926086426
-0.3934020996
-0.3884887695
-0.4107055664
-0.4187316895
-0.4339904785
-0.4580993652
-0.4560852051
-0.4664306641
-0.477355957
-0.4830932617
-0.4824523926
-0.4765625
-0.4717102051
-0.4708862305
-0.4766235352
-0.4809265137
-0.4839477539
-0.4834899902
-0.4942626953
-0.5030212402
-0.4933776855
-0.4992675781
-0.5110473633
-0.4975280762
-0.5023498535
-0.513458252
-0.5153808594
-0.5226135254
-0.5113830566
-0.5110778809
-0.5162963867
-0.512878418
-0.5039367676
-0.4932556152
-0.500579834
-0.501953125
-0.4923095703
-0.4908752441
-0.4906311035
-0.4927978516
-0.4956970215
-0.491607666
-0.4976501465
-0.502166748
-0.5056152344
-0.5038757324
-0.5091552734
-0.5245666504
-0.5266113281
-0.5349121094
-0.5386352539
-0.5403747559
-0.5413818359
-0.5433654785
-0.5331726074
-0.5081481934
-0.5184020996
-0.5295410156
-0.521270752
-0.5093383789
-0.4935302734
-0.4897460938
-0.4943847656
-0.5094299316
-0.4991455078
-0.4797058105
-0.4938659668
-0.5111083984
-0.518371582
-0.5184326172
-0.5396728516
-0.5532531738
-0.534576416
-0.5309753418
-0.5422058105
-0.5635375977
-0.5631103516
-0.5469360352
-0.5466918945
-0.5745849609
-0.6099243164
-0.5979309082
-0.5660095215
-0.552734375
-0.571472168
-0.5986022949
-0.5801696777
-0.5286254883
-0.4742126465
-0.473449707
-0.4284973145
-0.2988891602
-0.1872253418
-0.03289794922
0.2086791992
0.4905395508
0.7293701172
0.8904724121
0.8240966797
0.7013244629
0.4683227539
-0.02352905273
-0.5708007812
-0.8781738281
-0.8497314453
-0.8450927734
-0.7571411133
-0.5921020508
-0.488861084
-0.4699707031
-0.5112609863
-0.4804382324
-0.4498596191
-0.438293457
-0.4659423828
-0.5109558105
-0.5087585449
-0.4766540527
-0.4718933105
-0.5222167969
-0.5259399414
-0.4926757812
-0.4653930664
-0.4419250488
-0.4397888184
-0.4344177246
-0.4245300293
-0.4039611816
-0.3913269043
-0.3763427734
-0.360168457
-0.339050293
-0.3214416504
-0.313659668
-0.2911376953
-0.2629699707
-0.2342834473
-0.2264404297
-0.2006835938
-0.1659240723
-0.1383666992
-0.1103515625
-0.1007385254
-0.06491088867
-0.01452636719
0.01989746094
0.04760742188
0.06924438477
0.09036254883
0.1147460938
0.1312561035
0.1414794922
0.139465332
0.1177978516
0.1091308594
0.08764648438
0.05844116211
0.02090454102
-0.02532958984
-0.05197143555
-0.09338378906
-0.1313781738
-0.1704711914
-0.199432373
-0.2204284668
-0.2517089844
-0.2863769531
-0.3168640137
-0.3439941406
-0.3852844238
-0.4111633301
-0.4228820801
-0.4247436523
-0.4366455078
-0.4599304199
-0.4806518555
-0.4991455078
-0.5061950684
-0.4992675781
-0.5003662109
-0.5046081543
-0.4967956543
-0.4959716797
-0.4899902344
-0.4934692383
-0.4895629883
-0.482635498
-0.477355957
-0.4490356445
-0.4446716309
-0.4404907227
-0.4273681641
-0.4310913086
-0.4331054688
-0.4304199219
-0.4188232422
-0.4167175293
-0.4198608398
-0.4222106934
-0.4324035645
-0.437713623
-0.4293823242
-0.4287414551
-0.4329223633
-0.4273681641
-0.4176025391
-0.4016418457
-0.4017944336
-0.4144897461
-0.4094238281
-0.404296875
-0.4293212891
-0.4486083984
-0.4600830078
-0.4762268066
-0.485534668
-0.5067443848
-0.5168151855
-0.526184082
-0.5350341797
-0.5180664062
-0.509979248
-0.5044555664
-0.4834289551
-0.4865722656
-0.5131225586
-0.5210266113
-0.5205383301
-0.5151062012
-0.5072021484
-0.509185791
-0.5135498047
-0.5109863281
-0.5070800781
-0.512878418
-0.5184326172
-0.5242004395
-0.522277832
-0.5215148926
-0.5312805176
-0.5456848145
-0.559753418
-0.5635986328
-0.5618896484
-0.5545654297
-0.5447692871
-0.5390625
-0.5420837402
-0.5489807129
-0.5522460938
-0.537689209
-0.5321044922
-0.5416259766
-0.536895752
-0.5454406738
-0.5503845215
-0.5394897461
-0.5426635742
-0.5566711426
-0.5598449707
-0.5567016602
-0.5545654297
-0.548614502
-0.5590820312
-0.560333252
-0.5458984375
-0.5461120605
-0.5505371094
-0.5361328125
-0.5223083496
-0.5231933594
-0.5040588379
-0.4884338379
-0.4974365234
-0.5120239258
-0.5164794922
-0.4873962402
-0.486907959
-0.5045471191
-0.4913024902
-0.4942626953
-0.5098876953
-0.5382385254
-0.5330505371
-0.5110473633
-0.5138244629
-0.5097961426
-0.5179443359
-0.5165100098
-0.5189819336
-0.5506896973
-0.5790405273
-0.5744934082
-0.5318603516
-0.5166015625
-0.5563049316
-0.5980834961
-0.5796508789
-0.5263977051
-0.4789733887
-0.4848937988
-0.4552612305
-0.3296813965
-0.2025146484
-0.05688476562
0.2062988281
0.5426330566
0.7575683594
0.9556884766
0.9202270508
0.7819824219
0.5499572754
0.01028442383
-0.5300292969
-0.9034423828
-0.9052734375
-0.8671875
-0.7942504883
-0.6053466797
-0.5002441406
-0.478729248
-0.5202941895
-0.4977722168
-0.4553222656
-0.4424438477
-0.4748535156
-0.4946899414
-0.4801940918
-0.4638061523
-0.4518127441
-0.4790039062
-0.5005187988
-0.4808349609
-0.4384155273
-0.4168701172
-0.407989502
-0.3884277344
-0.3751525879
-0.3639221191
-0.3553466797
-0.3578796387
-0.3518981934
-0.3288574219
-0.3114929199
-0.2909545898
-0.2671813965
-0.2320861816
-0.1988830566
-0.1776428223
-0.1497192383
-0.115234375
-0.07806396484
-0.06332397461
-0.03579711914
0.01745605469
0.06530761719
0.1049194336
0.1234130859
0.1346740723
0.1481018066
0.1697387695
0.1866760254
0.1875915527
0.1869812012
0.1702575684
0.158782959
0.1526489258
0.1347961426
0.09741210938
0.04205322266
-0.001281738281
-0.0393371582
-0.08428955078
-0.1264648438
-0.158416748
-0.1942138672
-0.2383117676
-0.2752075195
-0.3091430664
-0.3432922363
-0.3742980957
-0.4032287598
-0.4166259766
-0.425567627
-0.4400024414
-0.4491271973
-0.4655151367
-0.4889831543
-0.4881896973
-0.4860534668
-0.495300293
-0.4989624023
-0.4971008301
-0.4799804688
-0.4779968262
-0.4723510742
-0.460723877
-0.4648742676
-0.453918457
-0.4549865723
-0.4530029297
-0.429107666
-0.4214172363
-0.4179382324
-0.4044799805
-0.3968505859
-0.4004211426
-0.3922729492
-0.3828125
-0.3819885254
-0.3746032715
-0.3850402832
-0.3833618164
-0.3825073242
-0.3948974609
-0.3899230957
-0.4002075195
-0.3881530762
-0.3831481934
-0.3980712891
-0.3922729492
-0.4019165039
-0.4246520996
-0.4500732422
-0.4578857422
-0.4573669434
-0.4601135254
-0.4604492188
-0.4749450684
-0.4780578613
-0.4753723145
-0.4892272949
-0.4876403809
-0.479309082
-0.490234375
-0.504699707
-0.5238342285
-0.5366210938
-0.5371398926
-0.5393066406
-0.5321044922
-0.5381469727
-0.5399780273
-0.5379638672
-0.5524902344
-0.5472717285
-0.536529541
-0.5293884277
-0.5306396484
-0.5409851074
-0.5417785645
-0.543762207
-0.544342041
-0.5374145508
-0.5470275879
-0.5518798828
-0.5380554199
-0.5440979004
-0.5567626953
-0.556427002
-0.5449829102
-0.540802002
-0.5340881348
-0.5312194824
-0.5440673828
-0.5461425781
-0.5679321289
-0.5696411133
-0.5599060059
-0.5606079102
-0.5434265137
-0.5531921387
-0.5661315918
-0.5596618652
-0.5563659668
-0.5599975586
-0.5753479004
-0.5711669922
-0.5544128418
-0.5513305664
-0.5344238281
-0.5349731445
-0.5305175781
-0.5088500977
-0.4964294434
-0.4750976562
-0.485748291
-0.5002746582
-0.5015258789
-0.5030212402
-0.4995117188
-0.5126037598
-0.514831543
-0.521270752
-0.5380249023
-0.5549621582
-0.5579528809
-0.5494995117
-0.5596618652
-0.562286377
-0.5697631836
-0.5716247559
-0.5632629395
-0.5749206543
-0.5963134766
-0.5952758789
-0.5556030273
-0.5304870605
-0.5448913574
-0.5848999023
-0.5870666504
-0.5402832031
-0.4736022949
-0.450592041
-0.4605102539
-0.3507385254
-0.2286071777
-0.109954834
0.08999633789
0.3916625977
0.6464538574
0.873046875
0.9404296875
0.8107910156
0.6766052246
0.2336425781
-0.3610839844
-0.8284606934
-0.9358825684
-0.8954162598
-0.8813476562
-0.7109985352
-0.556854248
-0.5062255859
-0.5429382324
-0.5443725586
-0.5007629395
-0.4742736816
-0.4887390137
-0.5196228027
-0.510925293
-0.4787597656
-0.4659729004
-0.4825134277
-0.5097961426
-0.5087280273
-0.4741210938
-0.4505310059
-0.443359375
-0.4270324707
-0.4087524414
-0.388671875
-0.3833312988
-0.3854370117
-0.3737182617
-0.3638305664
-0.3512878418
-0.3341369629
-0.30859375
-0.2715759277
-0.2326660156
-0.2038879395
-0.1796264648
-0.1521911621
-0.1167297363
-0.08737182617
-0.05862426758
-0.02178955078
0.02337646484
0.06826782227
0.09219360352
0.1123352051
0.1200256348
0.1281433105
0.1462097168
0.1514282227
0.1398925781
0.1368103027
0.1338500977
0.1351318359
0.1225891113
0.08258056641
0.06597900391
0.03289794922
-0.009643554688
-0.05975341797
-0.0979309082
-0.1206359863
-0.1651916504
-0.197265625
-0.2298278809
-0.2716674805
-0.3059692383
-0.3344726562
-0.3654174805
-0.3764648438
-0.3922119141
-0.4192504883
-0.4268798828
-0.4503173828
-0.4630126953
-0.4617614746
-0.4613647461
-0.4618835449
-0.4718933105
-0.4668579102
-0.4683532715
-0.468170166
-0.4663391113
-0.4705200195
-0.4593811035
-0.4414978027
-0.4271850586
-0.4333496094
-0.4442138672
-0.4396362305
-0.4457092285
-0.4474487305
-0.4406433105
-0.4312133789
-0.4187316895
-0.4217529297
-0.4214172363
-0.418182373
-0.424987793
-0.4320678711
-0.4439086914
-0.4543762207
-0.4508056641
-0.4432983398
-0.4428405762
-0.4557495117
-0.4714050293
-0.4792785645
-0.4926147461
-0.4965515137
-0.5019226074
-0.5156555176
-0.5133666992
-0.517791748
-0.5279846191
-0.5309143066
-0.5350952148
-0.5365600586
-0.5424194336
-0.5507507324
-0.54296875
-0.5404052734
-0.5430297852
-0.5422973633
-0.5488891602
-0.5464172363
-0.5434265137
-0.5437927246
-0.537902832
-0.5370178223
-0.5390319824
-0.5365905762
-0.5442504883
-0.5558776855
-0.5595092773
-0.5664367676
-0.559967041
-0.5543823242
-0.5567932129
-0.5534057617
-0.5421142578
-0.5281677246
-0.5407714844
-0.5432739258
-0.5370483398
-0.5411071777
-0.5448303223
-0.5474243164
-0.542755127
-0.5427246094
-0.5467224121
-0.5495300293
-0.5483398438
-0.5463256836
-0.5384216309
-0.5306396484
-0.5317382812
-0.5301208496
-0.5173950195
-0.5285949707
-0.5503234863
-0.5516357422
-0.5574035645
-0.5544128418
-0.5490112305
-0.5466308594
-0.5439758301
-0.5401611328
-0.524017334
-0.5127563477
-0.5149841309
-0.5336914062
-0.5295410156
-0.512298584
-0.4951477051
-0.487121582
-0.4970397949
-0.4967041016
-0.5069274902
-0.528503418
-0.5411376953
-0.5320739746
-0.5423583984
-0.5564880371
-0.5709533691
-0.5963134766
-0.5818481445
-0.5778808594
-0.6133728027
-0.633972168
-0.6107177734
-0.585357666
-0.5803527832
-0.600769043
-0.610168457
-0.5635070801
-0.5016479492
-0.4585571289
-0.4425964355
-0.3559265137
-0.2288513184
-0.1069946289
0.08477783203
0.3258666992
0.6063842773
0.8749694824
0.9887695312
0.8771972656
0.6866149902
0.4167480469
-0.1340332031
-0.6965332031
-0.8202514648
-0.7981262207
-0.8238830566
-0.7237854004
-0.5851745605
-0.4922790527
-0.5053100586
-0.5288391113
-0.4927978516
-0.4526977539
-0.4532470703
-0.4764099121
-0.4810791016
-0.4595947266
-0.4267272949
-0.4373779297
-0.4645080566
-0.4629516602
-0.4321594238
-0.4023132324
-0.4000244141
-0.4046325684
-0.3881530762
-0.3644714355
-0.3511352539
-0.3562316895
-0.3686218262
-0.3617553711
-0.3431396484
-0.330657959
-0.3197021484
-0.2847290039
-0.2624511719
-0.2582092285
-0.2406311035
-0.2164916992
-0.165802002
-0.121307373
-0.1017150879
-0.07049560547
-0.03405761719
0.004028320312
0.03231811523
0.04119873047
0.05264282227
0.05938720703
0.07019042969
0.07788085938
0.06536865234
0.06176757812
0.05447387695
0.04046630859
0.03204345703
0.009246826172
-0.02407836914
-0.05163574219
-0.07788085938
-0.1103210449
-0.1475524902
-0.1793212891
-0.2074890137
-0.2313842773
-0.2526245117
-0.2776489258
-0.2861022949
-0.306640625
-0.3402099609
-0.3625488281
-0.3746337891
-0.3764953613
-0.390411377
-0.4069824219
-0.4284973145
-0.4426574707
-0.4519958496
-0.460144043
-0.4610595703
-0.4669494629
-0.4595336914
-0.4488525391
-0.4436340332
-0.4347839355
-0.4194641113
-0.4124755859
-0.413269043
-0.4182128906
-0.4225769043
-0.4185791016
-0.4109802246
-0.3990478516
-0.3922119141
-0.3863525391
-0.3838500977
-0.3793029785
-0.3773498535
-0.379119873
-0.3838806152
-0.3889160156
-0.3897094727
-0.4006958008
-0.4015808105
-0.3970947266
-0.390411377
-0.3954772949
-0.4215087891
-0.4270935059
-0.4264831543
-0.4422607422
-0.4598693848
-0.4732055664
-0.4885559082
-0.4963378906
-0.5012512207
-0.5079956055
-0.5004272461
-0.4991760254
-0.5020141602
-0.4992675781
-0.5048828125
-0.5149536133
-0.5176086426
-0.5179443359
-0.5152893066
-0.5100402832
-0.5112304688
-0.506072998
-0.5070495605
-0.5179748535
-0.5095825195
-0.4843139648
-0.4721679688
-0.4862060547
-0.5009765625
-0.5025024414
-0.5119628906
-0.5165100098
-0.5231933594
-0.534362793
-0.5333251953
-0.5408630371
-0.5356445312
-0.5288085938
-0.5380249023
-0.5391845703
-0.5387573242
-0.5409851074
-0.5548095703
-0.5528564453
-0.5437316895
-0.5575866699
-0.5555419922
-0.5518493652
-0.5426940918
-0.5325317383
-0.5411071777
-0.5422363281
-0.529510498
-0.5026550293
-0.5035400391
-0.5216674805
-0.5210571289
-0.5218505859
-0.5171203613
-0.5267028809
-0.5289916992
-0.5158081055
-0.5078735352
-0.483215332
-0.4669799805
-0.4624023438
-0.4691467285
-0.471282959
-0.4627380371
-0.4623413086
-0.4643249512
-0.4784851074
-0.5033569336
-0.5207824707
-0.5374145508
-0.5403747559
-0.5156860352
-0.5096740723
-0.522644043
-0.5354614258
-0.535949707
-0.5425109863
-0.5697631836
-0.5911254883
-0.6038513184
-0.5660095215
-0.5321655273
-0.5440979004
-0.5797424316
-0.5999145508
-0.5485229492
-0.4802856445
-0.4635925293
-0.4444580078
-0.3294067383
-0.2174682617
-0.1011657715
0.1110534668
0.4235229492
0.6517944336
0.8353271484
0.8642883301
0.7272949219
0.5821533203
0.1690979004
-0.3444519043
-0.7809753418
-0.8833007812
-0.8421325684
-0.8205871582
-0.6457519531
-0.509765625
-0.4668273926
-0.5059509277
-0.5146179199
-0.4720153809
-0.4409790039
-0.4485168457
-0.4867553711
-0.4866333008
-0.4588928223
-0.4488525391
-0.4586791992
-0.4792785645
-0.4789733887
-0.4500427246
-0.4183959961
-0.4110412598
-0.4093933105
-0.3931274414
-0.3866271973
-0.3941955566
-0.3962402344
-0.3916320801
-0.376159668
-0.3633117676
-0.3518371582
-0.3267822266
-0.2970275879
-0.2683105469
-0.2366333008
-0.2049560547
-0.1753845215
-0.1291809082
-0.1059875488
-0.08715820312
-0.04110717773
-0.001892089844
0.03915405273
0.07958984375
0.09942626953
0.09912109375
0.119354248
0.1353759766
0.1338500977
0.1319580078
0.1106567383
0.1109008789
0.1135559082
0.08801269531
0.05230712891
0.002502441406
-0.04006958008
-0.07925415039
-0.1219177246
-0.1522216797
-0.1912231445
-0.2318725586
-0.264831543
-0.303314209
-0.3287658691
-0.3443908691
-0.3688659668
-0.4066467285
-0.4367980957
-0.4415283203
-0.4388427734
-0.4403991699
-0.4567260742
-0.4669494629
-0.462310791
-0.4783935547
-0.4925231934
-0.4954528809
-0.5045166016
-0.5062866211
-0.5058288574
-0.4996948242
-0.5004272461
-0.499786377
-0.4781188965
-0.479888916
-0.4832763672
-0.475189209
-0.4811401367
-0.4822998047
-0.4861755371
-0.4957885742
-0.4957580566
-0.4870605469
-0.4861755371
-0.4799194336
-0.4636230469
-0.4443969727
-0.425201416
-0.4371643066
-0.455291748
-0.4553833008
-0.4533081055
-0.4532470703
-0.4565734863
-0.4502868652
-0.4480895996
-0.4539794922
-0.4707641602
-0.4851989746
-0.4875793457
-0.4902648926
-0.4906005859
-0.4932556152
-0.500793457
-0.5043029785
-0.503692627
-0.5146179199
-0.5176696777
-0.5105285645
-0.5025634766
-0.503692627
-0.5171203613
-0.5232849121
-0.5145874023
-0.5159912109
-0.516418457
-0.5147705078
-0.5181884766
-0.5113525391
-0.5235290527
-0.5384216309
-0.5450134277
-0.5473937988
-0.5357666016
-0.5378723145
-0.5412597656
-0.5357971191
-0.539642334
-0.5349121094
-0.5321960449
-0.5322570801
-0.5269775391
-0.5202331543
-0.5226135254
-0.5307617188
-0.530090332
-0.529296875
-0.5339355469
-0.5297241211
-0.5201416016
-0.525970459
-0.5254516602
-0.5333862305
-0.545501709
-0.5560913086
-0.5472106934
-0.5167236328
-0.5177307129
-0.5268554688
-0.5295410156
-0.5250244141
-0.5151367188
-0.5210266113
-0.522277832
-0.508972168
-0.4965209961
-0.4828796387
-0.4802246094
-0.4864807129
-0.482208252
-0.4842529297
-0.4824829102
-0.4763793945
-0.484161377
-0.4930419922
-0.5032348633
-0.5207214355
-0.5531311035
-0.5474243164
-0.5319213867
-0.5572814941
-0.5612792969
-0.5597229004
-0.5596008301
-0.550994873
-0.5681152344
-0.5834655762
-0.5763244629
-0.5454406738
-0.5235900879
-0.5536499023
-0.590057373
-0.5746765137
-0.5211791992
-0.4619140625
-0.4644775391
-0.4173278809
-0.2656860352
-0.1493530273
-0.02130126953
0.2454223633
0.5485534668
0.7559814453
0.9276123047
0.8497619629
0.72265625
0.4589233398
-0.08181762695
-0.5983276367
-0.9184265137
-0.9111022949
-0.8725280762
-0.7611999512
-0.5798339844
-0.4732971191
-0.4707336426
-0.5086364746
-0.4824829102
-0.4428405762
-0.4271850586
-0.452545166
-0.4615783691
-0.4501342773
-0.4243469238
-0.4209594727
-0.4490356445
-0.4583129883
-0.4456481934
-0.4115600586
-0.3819274902
-0.3766784668
-0.3812561035
-0.3790283203
-0.3645324707
-0.3533630371
-0.3587341309
-0.3385620117
-0.3219604492
-0.3219909668
-0.2968139648
-0.2651672363
-0.2375793457
-0.2128295898
-0.1857910156
-0.1629638672
-0.1249084473
-0.08895874023
-0.06677246094
-0.03015136719
0.0004272460938
0.03601074219
0.06536865234
0.09204101562
0.1139831543
0.1093139648
0.1358642578
0.1730041504
0.1813964844
0.1614074707
0.1317138672
0.1133117676
0.09844970703
0.07516479492
0.04162597656
0.02142333984
-0.0003662109375
-0.04299926758
-0.08920288086
-0.1304626465
-0.1635437012
-0.1981201172
-0.2445373535
-0.2863769531
-0.3163146973
-0.3479309082
-0.3773193359
-0.4079284668
-0.4301147461
-0.4325256348
-0.4412841797
-0.4614257812
-0.4841308594
-0.4987792969
-0.5082702637
-0.5118103027
-0.5138244629
-0.522277832
-0.5173950195
-0.5001525879
-0.4987792969
-0.4975891113
-0.4874267578
-0.4737854004
-0.4559326172
-0.4473266602
-0.4460754395
-0.4409484863
-0.4308166504
-0.4329223633
-0.4505615234
-0.4546203613
-0.4330444336
-0.4299621582
-0.432800293
-0.4266967773
-0.4268188477
-0.4262695312
-0.4375915527
-0.4444885254
-0.443572998
-0.435546875
-0.4272766113
-0.4379882812
-0.4371643066
-0.4317321777
-0.4292297363
-0.4343566895
-0.4470825195
-0.4566955566
-0.4706420898
-0.4753417969
-0.471862793
-0.4742126465
-0.4813537598
-0.4791870117
-0.4759521484
-0.4757080078
-0.4800109863
-0.4936828613
-0.505065918
-0.5157165527
-0.5286254883
-0.5331420898
-0.518951416
-0.510925293
-0.5217895508
-0.5365905762
-0.5452880859
-0.535949707
-0.539855957
-0.5635681152
-0.5743408203
-0.5728149414
-0.5633544922
-0.5500183105
-0.5464477539
-0.5444641113
-0.5381164551
-0.5409851074
-0.5483398438
-0.5498046875
-0.5353088379
-0.5184326172
-0.5363769531
-0.5502929688
-0.5442810059
-0.5457458496
-0.5413513184
-0.538848877
-0.5436401367
-0.5406188965
-0.5442199707
-0.5577087402
-0.5653381348
-0.5579833984
-0.5464172363
-0.5549316406
-0.562286377
-0.5643920898
-0.5600891113
-0.5424804688
-0.5390014648
-0.5484924316
-0.5598144531
-0.562286377
-0.5473022461
-0.5190429688
-0.5027160645
-0.4982299805
-0.5049438477
-0.5042724609
-0.4798583984
-0.481262207
-0.4835510254
-0.4901123047
-0.5208129883
-0.5416564941
-0.5618591309
-0.560333252
-0.563079834
-0.5796508789
-0.5828857422
-0.5977783203
-0.589630127
-0.5778503418
-0.5982971191
-0.6129150391
-0.6164245605
-0.5891418457
-0.5620727539
-0.589050293
-0.6356201172
-0.6259765625
-0.5666809082
-0.5016479492
-0.4880981445
-0.4582214355
-0.3240966797
-0.2067871094
-0.07366943359
0.1734619141
0.4908447266
0.7243041992
0.9067993164
0.8714294434
0.736114502
0.519744873
0.01556396484
-0.5282897949
-0.9114379883
-0.9327087402
-0.913269043
-0.8581237793
-0.6687011719
-0.5432434082
-0.5145568848
-0.5533447266
-0.5347595215
-0.492401123
-0.4815673828
-0.5124206543
-0.5183105469
-0.4862670898
-0.4501953125
-0.4288330078
-0.4512023926
-0.4758605957
-0.4623718262
-0.4370117188
-0.4085083008
-0.4000549316
-0.4007873535
-0.3895568848
-0.3791503906
-0.378112793
-0.3871154785
-0.3751220703
-0.3829345703
-0.3834838867
-0.3591308594
-0.3334960938
-0.2907104492
-0.2559204102
-0.2340698242
-0.2140197754
-0.1721801758
-0.1308898926
-0.1015625
-0.05615234375
-0.01702880859
0.0217590332
0.06259155273
0.09133911133
0.1123352051
0.119140625
0.1344299316
0.156829834
0.1674499512
0.1618041992
0.1485595703
0.1573181152
0.1512756348
0.106842041
0.08349609375
0.06216430664
0.02447509766
-0.007781982422
-0.04449462891
-0.07995605469
-0.1203308105
-0.1622619629
-0.1960449219
-0.2195739746
-0.2468566895
-0.2803344727
-0.313873291
-0.3549804688
-0.3735656738
-0.3858642578
-0.3991699219
-0.4057312012
-0.4200439453
-0.4264526367
-0.441192627
-0.444732666
-0.4369506836
-0.4480895996
-0.4608459473
-0.4567260742
-0.4529724121
-0.4663696289
-0.4585571289
-0.4312744141
-0.4208068848
-0.4252624512
-0.4266967773
-0.4283752441
-0.4442138672
-0.453918457
-0.4407348633
-0.4263000488
-0.4255371094
-0.4208374023
-0.4176940918
-0.4157409668
-0.4051818848
-0.3992614746
-0.3993225098
-0.4020080566
-0.4036254883
-0.4021606445
-0.4007263184
-0.4009399414
-0.393371582
-0.3957214355
-0.4202575684
-0.4403076172
-0.4496154785
-0.4647216797
-0.4719543457
-0.4703979492
-0.4719848633
-0.4678344727
-0.4767456055
-0.4908752441
-0.5021972656
-0.5072631836
-0.5044555664
-0.5104675293
-0.5104675293
-0.5042114258
-0.5011291504
-0.5048828125
-0.5041503906
-0.4946899414
-0.5010986328
-0.5027770996
-0.4960021973
-0.4970703125
-0.4975280762
-0.5020751953
-0.4996032715
-0.4933776855
-0.5010681152
-0.4996948242
-0.4930114746
-0.4922180176
-0.4924621582
-0.5076599121
-0.5218811035
-0.5321350098
-0.533416748
-0.5260925293
-0.530456543
-0.5242004395
-0.5227050781
-0.534942627
-0.5408630371
-0.5461730957
-0.5419616699
-0.5469970703
-0.5644226074
-0.5742492676
-0.5690917969
-0.5588684082
-0.5508117676
-0.5512084961
-0.5564880371
-0.5422973633
-0.527130127
-0.5114746094
-0.4971923828
-0.5166625977
-0.5369873047
-0.5375976562
-0.5354003906
-0.5367431641
-0.5501098633
-0.5596313477
-0.5683898926
-0.5799560547
-0.5802001953
-0.5703430176
-0.5612487793
-0.5649719238
-0.5871276855
-0.6040649414
-0.6036682129
-0.5989074707
-0.6099853516
-0.6360473633
-0.6350097656
-0.606628418
-0.5940246582
-0.6263122559
-0.6597595215
-0.643157959
-0.5839233398
-0.5318603516
-0.5245361328
-0.454498291
-0.3404541016
-0.2431640625
-0.0715637207
0.1454162598
0.4054260254
0.6893310547
0.875
0.8525085449
0.6683654785
0.4528198242
0.04238891602
-0.5787963867
-0.8802490234
-0.85546875
-0.8855895996
-0.8372802734
-0.7002868652
-0.5797729492
-0.5369262695
-0.5689086914
-0.5651245117
-0.5284729004
-0.5050048828
-0.5271911621
-0.5454406738
-0.523223877
-0.4795837402
-0.4661560059
-0.4840698242
-0.4981689453
-0.475982666
-0.4387512207
-0.442199707
-0.4595031738
-0.4621582031
-0.4384460449
-0.4108886719
-0.3902587891
-0.3778381348
-0.3471374512
-0.309753418
-0.2993164062
-0.2804870605
-0.2633972168
-0.2405700684
-0.222442627
-0.2178955078
-0.1993408203
-0.1691589355
-0.1399536133
-0.1135864258
-0.08969116211
-0.06167602539
-0.01376342773
0.02377319336
0.02923583984
0.04290771484
0.05856323242
0.06326293945
0.07272338867
0.06213378906
0.04895019531
0.03646850586
0.03533935547
0.0407409668
0.02938842773
0.0068359375
-0.02923583984
-0.05624389648
-0.09164428711
-0.1353759766
-0.1707763672
-0.209197998
-0.2357177734
-0.2719116211
-0.3150634766
-0.3305969238
-0.3478088379
-0.3807678223
-0.4091186523
-0.4235229492
-0.4368896484
-0.4508056641
-0.462310791
-0.469543457
-0.4670410156
-0.4725646973
-0.4787597656
-0.4744873047
-0.4792175293
-0.4694213867
-0.4409179688
-0.4267883301
-0.4267272949
-0.4306335449
-0.4328613281
-0.439239502
-0.4495544434
-0.4647827148
-0.478515625
-0.4776306152
-0.4754943848
-0.4709777832
-0.4706115723
-0.4621582031
-0.448425293
-0.4629211426
-0.4579162598
-0.4543762207
-0.4627075195
-0.4472961426
-0.4500427246
-0.448059082
-0.4275817871
-0.4146728516
-0.4075622559
-0.411895752
-0.4268188477
-0.4342346191
-0.4387817383
-0.4586486816
-0.474395752
-0.4790649414
-0.4860229492
-0.4903259277
-0.5004882812
-0.5094604492
-0.5048828125
-0.5076293945
-0.5069274902
-0.5185852051
-0.5253295898
-0.5065612793
-0.4968566895
-0.4922790527
-0.4878540039
-0.4877319336
-0.4931640625
-0.4959716797
-0.500213623
-0.5076599121
-0.5167236328
-0.5123901367
-0.5128479004
-0.521270752
-0.5116271973
-0.5029907227
-0.5021972656
-0.5104064941
-0.5128173828
-0.5064086914
-0.4936523438
-0.4978027344
-0.5179443359
-0.519744873
-0.5137634277
-0.5007629395
-0.5084838867
-0.5148620605
-0.5135803223
-0.5151367188
-0.5102233887
-0.5154724121
-0.501953125
-0.4860839844
-0.4721679688
-0.4520263672
-0.4514465332
-0.4562683105
-0.4486083984
-0.4378356934
-0.4256896973
-0.4217834473
-0.4291992188
-0.4440917969
-0.4679260254
-0.4933166504
-0.4912414551
-0.4777832031
-0.4671325684
-0.4730834961
-0.515838623
-0.5323791504
-0.5235290527
-0.5229797363
-0.537322998
-0.5621948242
-0.5560302734
-0.5351257324
-0.5339355469
-0.5537414551
-0.5758361816
-0.5606384277
-0.5166625977
-0.4817504883
-0.4922180176
-0.4215393066
-0.2886047363
-0.1839904785
-0.03833007812
0.212310791
0.4862976074
0.696105957
0.8289489746
0.7212524414
0.6026000977
0.3483276367
-0.1452636719
-0.6331481934
-0.8753967285
-0.8504943848
-0.8656921387
-0.759185791
-0.5951843262
-0.4996337891
-0.4933166504
-0.5306091309
-0.4987792969
-0.4580993652
-0.4410705566
-0.4795227051
-0.5055236816
-0.4755249023
-0.4473266602
-0.4446411133
-0.464263916
-0.4542541504
-0.4356079102
-0.4278869629
-0.4007568359
-0.395324707
-0.391784668
-0.3771972656
-0.3694458008
-0.3690185547
-0.3647155762
-0.3545532227
-0.3436584473
-0.3272705078
-0.3075866699
-0.2864074707
-0.2637329102
-0.2307739258
-0.2113037109
-0.1833496094
-0.1322631836
-0.09609985352
-0.06820678711
-0.03750610352
-0.003112792969
0.03463745117
0.06652832031
0.08413696289
0.08911132812
0.09689331055
0.1130981445
0.1196594238
0.1238098145
0.1220703125
0.1103515625
0.0993347168
0.08612060547
0.05749511719
0.01382446289
-0.02139282227
-0.05895996094
-0.08813476562
-0.1112365723
-0.150177002
-0.1884460449
-0.2110900879
-0.2414855957
-0.2814331055
-0.3130493164
-0.3381958008
-0.3644714355
-0.4062805176
-0.4357910156
-0.4379577637
-0.4405517578
-0.4556274414
-0.4695129395
-0.4658813477
-0.456237793
-0.4852600098
-0.5213317871
-0.532989502
-0.5386962891
-0.5391845703
-0.5313720703
-0.5216369629
-0.5283813477
-0.5169067383
-0.4996948242
-0.4913024902
-0.472442627
-0.4580688477
-0.4635314941
-0.4815673828
-0.4829101562
-0.4741516113
-0.4628601074
-0.4706420898
-0.4856567383
-0.4781494141
-0.482421875
-0.4907531738
-0.4784545898
-0.4782714844
-0.4856872559
-0.4784240723
-0.4688720703
-0.469909668
-0.4694213867
-0.4653320312
-0.4663696289
-0.4716491699
-0.489074707
-0.4948730469
-0.4971313477
-0.5242004395
-0.527923584
-0.5184326172
-0.5320739746
-0.5315246582
-0.5432434082
-0.5563659668
-0.5538330078
-0.5619506836
-0.5667114258
-0.5674743652
-0.564239502
-0.5621643066
-0.5514221191
-0.5435180664
-0.5486755371
-0.5532836914
-0.5535583496
-0.5453796387
-0.546081543
-0.5398254395
-0.5404663086
-0.5533447266
-0.5540466309
-0.562713623
-0.5611572266
-0.5595703125
-0.5501403809
-0.5392456055
-0.5523071289
-0.5574645996
-0.5653991699
-0.5740356445
-0.5812072754
-0.5875244141
-0.5807800293
-0.5778808594
-0.5885620117
-0.5908813477
-0.5875854492
-0.5791931152
-0.5660095215
-0.572265625
-0.5733337402
-0.5749511719
-0.5728759766
-0.5652160645
-0.5683288574
-0.5603027344
-0.5497436523
-0.5317993164
-0.5212097168
-0.5339660645
-0.5497741699
-0.5597839355
-0.5481567383
-0.5377502441
-0.5445556641
-0.5530090332
-0.5636291504
-0.5706481934
-0.5960083008
-0.5991210938
-0.5776062012
-0.5810546875
-0.5940856934
-0.6043701172
-0.602722168
-0.5956726074
-0.5995483398
-0.630645752
-0.6535339355
-0.6317749023
-0.5851745605
-0.5683288574
-0.5989074707
-0.6143493652
-0.5763244629
-0.514251709
-0.4606018066
-0.4519958496
-0.3528442383
-0.2069091797
-0.1134033203
0.04336547852
0.3439331055
0.6279602051
0.8168029785
0.9265441895
0.8236083984
0.6870727539
0.3352966309
-0.182434082
-0.656463623
-0.8735656738
-0.8304138184
-0.8258056641
-0.6913757324
-0.5315551758
-0.4594116211
-0.4768981934
-0.507598877
-0.4730834961
-0.4320373535
-0.4264221191
-0.4666442871
-0.4760437012
-0.4463500977
-0.431060791
-0.4342651367
-0.4458618164
-0.4417114258
-0.4178466797
-0.3901672363
-0.3817749023
-0.3886413574
-0.3853149414
-0.3764343262
-0.376953125
-0.3709106445
-0.3517150879
-0.3475036621
-0.3456420898
-0.3269042969
-0.302154541
-0.2748718262
-0.2409667969
-0.2133483887
-0.190612793
-0.1648864746
-0.1276855469
-0.09048461914
-0.04971313477
-0.008666992188
0.01571655273
0.05560302734
0.1053161621
0.1294555664
0.1411743164
0.1518859863
0.1727905273
0.1711425781
0.1530456543
0.1487731934
0.1399536133
0.1383666992
0.1163330078
0.07824707031
0.04287719727
0.01138305664
-0.02102661133
-0.05154418945
-0.0823059082
-0.119140625
-0.1536560059
-0.193572998
-0.2310180664
-0.2598876953
-0.2845458984
-0.3135375977
-0.3439025879
-0.3736877441
-0.3965454102
-0.413482666
-0.4355773926
-0.4494628906
-0.4602661133
-0.4725646973
-0.4579467773
-0.4613952637
-0.4814453125
-0.4815673828
-0.4847717285
-0.4925842285
-0.4971923828
-0.5047302246
-0.5070800781
-0.4979248047
-0.4956665039
-0.4742431641
-0.4575195312
-0.4632263184
-0.4613952637
-0.4705810547
-0.4758605957
-0.4710998535
-0.4616699219
-0.4535522461
-0.4583435059
-0.4489440918
-0.4496765137
-0.4486999512
-0.4281005859
-0.4307250977
-0.4366455078
-0.4413452148
-0.4479675293
-0.4516906738
-0.4601745605
-0.4611816406
-0.4558105469
-0.4573974609
-0.4663391113
-0.469909668
-0.471282959
-0.465057373
-0.4578552246
-0.4582519531
-0.4639587402
-0.4754943848
-0.4754333496
-0.4794311523
-0.4895019531
-0.4906921387
-0.4915161133
-0.5032653809
-0.5126037598
-0.5108947754
-0.5014953613
-0.485748291
-0.4906311035
-0.4867858887
-0.4840393066
-0.4827880859
-0.4758911133
-0.4842529297
-0.4817199707
-0.486114502
-0.4892883301
-0.4818725586
-0.4854125977
-0.4971618652
-0.500579834
-0.5051269531
-0.5084228516
-0.5188293457
-0.5332946777
-0.5302734375
-0.5370483398
-0.5381469727
-0.5285339355
-0.5331726074
-0.5208435059
-0.5146789551
-0.5299072266
-0.5250244141
-0.5186157227
-0.5162353516
-0.5249023438
-0.5339355469
-0.5264282227
-0.5213317871
-0.5264282227
-0.5332641602
-0.5355529785
-0.5339660645
-0.521270752
-0.5190124512
-0.5229187012
-0.5123901367
-0.4906616211
-0.4696960449
-0.4699401855
-0.4691772461
-0.4741210938
-0.4852600098
-0.4667053223
-0.4689331055
-0.48046875
-0.4815673828
-0.5023498535
-0.5209655762
-0.5417175293
-0.5381164551
-0.5389709473
-0.550567627
-0.5411987305
-0.5450744629
-0.5374755859
-0.5166015625
-0.5270996094
-0.5614929199
-0.5771484375
-0.5479431152
-0.5238037109
-0.5519714355
-0.5859375
-0.576385498
-0.5379943848
-0.4753112793
-0.4574279785
-0.4521789551
-0.3381652832
-0.2179870605
-0.07287597656
0.1520690918
0.4704284668
0.721496582
0.9160766602
0.939453125
0.8017883301
0.6385192871
0.1877746582
-0.3557128906
-0.7879333496
-0.8743286133
-0.8331298828
-0.8014526367
-0.6263122559
-0.4815673828
-0.4346618652
-0.469909668
-0.4602355957
-0.4282836914
-0.4109191895
-0.4212036133
-0.4546203613
-0.4494934082
-0.4171142578
-0.4005432129
-0.4203186035
-0.4478149414
-0.4306640625
-0.3873291016
-0.3592224121
-0.3518981934
-0.3515014648
-0.3424682617
-0.328125
-0.3206176758
-0.3292541504
-0.3299865723
-0.319519043
-0.311126709
-0.2964782715
-0.2606506348
-0.2231445312
-0.1981811523
-0.1721496582
-0.1505737305
-0.1113891602
-0.05596923828
-0.01950073242
-0.003479003906
0.01870727539
0.05670166016
0.1019897461
0.1342163086
0.1376342773
0.141998291
0.1589660645
0.1601867676
0.159362793
0.1684265137
0.168182373
0.1682128906
0.1588134766
0.1319580078
0.1066589355
0.07754516602
0.03744506836
0.0007629394531
-0.03143310547
-0.06777954102
-0.1018066406
-0.1356201172
-0.1737365723
-0.2066345215
-0.2420654297
-0.2765197754
-0.3035583496
-0.3402099609
-0.3593444824
-0.3736877441
-0.3952331543
-0.4086608887
-0.4236450195
-0.4349060059
-0.4342956543
-0.4304504395
-0.4454956055
-0.4570922852
-0.4694213867
-0.4674072266
-0.4612121582
-0.4717712402
-0.469543457
-0.4722595215
-0.4727783203
-0.4739990234
-0.46875
-0.4664306641
-0.4718933105
-0.4706420898
-0.482635498
-0.4775085449
-0.475189209
-0.4668884277
-0.4616699219
-0.4686279297
-0.4523620605
-0.4498901367
-0.4418334961
-0.4415588379
-0.4462890625
-0.4403686523
-0.4396057129
-0.4380187988
-0.4497375488
-0.4649963379
-0.4684143066
-0.4776306152
-0.4925537109
-0.4970092773
-0.5044250488
-0.5207824707
-0.5327758789
-0.5428771973
-0.5569152832
-0.550201416
-0.5426330566
-0.5563964844
-0.5670471191
-0.5740966797
-0.5796203613
-0.5844116211
-0.5860595703
-0.5807800293
-0.5769042969
-0.5830078125
-0.5797729492
-0.5825195312
-0.5896606445
-0.5789489746
-0.5793762207
-0.5854797363
-0.5927429199
-0.5828552246
-0.5635986328
-0.5586547852
-0.5673217773
-0.5762023926
-0.5669555664
-0.5718078613
-0.6021728516
-0.6034240723
-0.590423584
-0.6015014648
-0.5947875977
-0.5886230469
-0.5960693359
-0.5952453613
-0.5959777832
-0.6039123535
-0.606048584
-0.5989379883
-0.6041564941
-0.6131286621
-0.6211242676
-0.6167602539
-0.6018981934
-0.5965881348
-0.6101379395
-0.6274719238
-0.6369018555
-0.6429443359
-0.6326904297
-0.6296691895
-0.6240844727
-0.6150817871
-0.6030273438
-0.5884094238
-0.5873718262
-0.5942077637
-0.5974121094
-0.5794372559
-0.5845031738
-0.5968322754
-0.6045837402
-0.5975952148
-0.5804748535
-0.5999755859
-0.5880432129
-0.5840454102
-0.5981140137
-0.6036376953
-0.6374206543
-0.6462402344
-0.6433105469
-0.6486206055
-0.6806945801
-0.7122497559
-0.6820983887
-0.6506958008
-0.6510620117
-0.6741638184
-0.6963806152
-0.6625976562
-0.5960998535
-0.5484619141
-0.5299682617
-0.44140625
-0.3142089844
-0.2046813965
-0.02105712891
0.2044372559
0.4740905762
0.7467651367
0.8670349121
0.7743835449
0.5952148438
0.3496704102
-0.1632080078
-0.7316894531
-0.8780517578
-0.862121582
-0.9127502441
-0.8186645508
-0.687713623
-0.5969238281
-0.5778808594
-0.595703125
-0.5580444336
-0.5138549805
-0.5067443848
-0.5297546387
-0.523651123
-0.494354248
-0.4737548828
-0.4720153809
-0.4942626953
-0.5052185059
-0.4917907715
-0.4631652832
-0.4440002441
-0.4429931641
-0.4254150391
-0.3985595703
-0.3830566406
-0.3760375977
-0.3771362305
-0.3598937988
-0.3347473145
-0.3147583008
-0.2948608398
-0.2703857422
-0.2352600098
-0.2151184082
-0.1889953613
-0.1697387695
-0.1678466797
-0.1423950195
-0.1127929688
-0.08023071289
-0.05358886719
-0.01937866211
0.02508544922
0.04397583008
0.04721069336
0.05706787109
0.08261108398
0.087890625
0.06701660156
0.0647277832
0.07217407227
0.07119750977
0.05737304688
0.02288818359
-0.01559448242
-0.05062866211
-0.07473754883
-0.09674072266
-0.1330566406
-0.1661071777
-0.1838989258
-0.2122192383
-0.2400817871
-0.2705688477
-0.2976989746
-0.3138122559
-0.3409118652
-0.3613586426
-0.3686218262
-0.3748779297
-0.3955688477
-0.4008789062
-0.4151916504
-0.4284362793
-0.4215698242
-0.4379577637
-0.4421691895
-0.4438476562
-0.4391784668
-0.4272766113
-0.4330749512
-0.4292907715
-0.4249267578
-0.4157104492
-0.4004211426
-0.3936157227
-0.396270752
-0.399230957
-0.3961181641
-0.3865356445
-0.3854064941
-0.3939819336
-0.3876647949
-0.3832397461
-0.3780517578
-0.3706054688
-0.3691101074
-0.3655700684
-0.3597717285
-0.366973877
-0.3768005371
-0.3702392578
-0.3661193848
-0.3754577637
-0.3896789551
-0.3946228027
-0.3954772949
-0.408203125
-0.4258422852
-0.4337463379
-0.4352722168
-0.4384460449
-0.436706543
-0.4428100586
-0.4510803223
-0.4638977051
-0.4805603027
-0.4719543457
-0.4788818359
-0.4773864746
-0.4653625488
-0.4683227539
-0.4565429688
-0.4652404785
-0.4737243652
-0.467010498
-0.4731750488
-0.4770507812
-0.4779052734
-0.467956543
-0.4535827637
-0.4542541504
-0.4630432129
-0.4573974609
-0.4544067383
-0.4599914551
-0.4527282715
-0.4580688477
-0.4675292969
-0.4757080078
-0.4813232422
-0.4831237793
-0.486541748
-0.4910583496
-0.4952392578
-0.4979858398
-0.5007629395
-0.4984130859
-0.5046081543
-0.5035095215
-0.4984436035
-0.5012207031
-0.4994812012
-0.4923400879
-0.4914550781
-0.5068664551
-0.5209655762
-0.5228881836
-0.515411377
-0.5164489746
-0.5345458984
-0.5428161621
-0.547454834
-0.5454101562
-0.5293884277
-0.518737793
-0.5016479492
-0.4801330566
-0.4685668945
-0.461730957
-0.4548339844
-0.4716796875
-0.4820556641
-0.4501953125
-0.4478149414
-0.4698791504
-0.4690551758
-0.4805908203
-0.5085144043
-0.5440368652
-0.5579833984
-0.5458068848
-0.5438232422
-0.5443115234
-0.5496520996
-0.5415344238
-0.5270996094
-0.5464477539
-0.5794372559
-0.582611084
-0.5514526367
-0.5295410156
-0.5400695801
-0.5827331543
-0.5961303711
-0.5515441895
-0.4846801758
-0.4469909668
-0.4449157715
-0.346496582
-0.2291259766
-0.1214599609
0.06909179688
0.3708496094
0.6201782227
0.809387207
0.8562927246
0.7237243652
0.5897216797
0.1914978027
-0.3282775879
-0.7665710449
-0.9021606445
-0.8514099121
-0.8198242188
-0.6542358398
-0.5116882324
-0.455291748
-0.4912719727
-0.5156555176
-0.4708557129
-0.44921875
-0.4638366699
-0.4876098633
-0.5023803711
-0.4736022949
-0.4378051758
-0.4501342773
-0.4776611328
-0.4763183594
-0.450592041
-0.4312438965
-0.4204406738
-0.4133605957
-0.400390625
-0.3863830566
-0.3817749023
-0.3789367676
-0.3658447266
-0.3429260254
-0.3362731934
-0.3237915039
-0.2859802246
-0.2514038086
-0.2260742188
-0.2022399902
-0.1805114746
-0.1504821777
-0.1156005859
-0.08615112305
-0.05627441406
-0.0393371582
-0.007690429688
0.03140258789
0.05679321289
0.0888671875
0.1116638184
0.1324768066
0.1478881836
0.1534423828
0.1518554688
0.1452941895
0.1419067383
0.1363830566
0.1343688965
0.1178283691
0.072265625
0.02697753906
-0.01351928711
-0.06427001953
-0.1124267578
-0.1422424316
-0.168762207
-0.2110290527
-0.2555541992
-0.296661377
-0.3309936523
-0.3588867188
-0.3869018555
-0.4051513672
-0.4146118164
-0.4251708984
-0.442199707
-0.4590454102
-0.4572143555
-0.4625244141
-0.4732971191
-0.4635009766
-0.4624938965
-0.4643249512
-0.4620361328
-0.4613342285
-0.4597473145
-0.4670715332
-0.4719543457
-0.4640197754
-0.4646911621
-0.4592895508
-0.4394226074
-0.445098877
-0.4454956055
-0.4376220703
-0.451965332
-0.4563293457
-0.4564208984
-0.4566650391
-0.4545593262
-0.4522705078
-0.4425354004
-0.4452514648
-0.4399719238
-0.4296569824
-0.4353027344
-0.4377441406
-0.4423217773
-0.4323425293
-0.4321289062
-0.4566955566
-0.4574890137
-0.4697265625
-0.4867553711
-0.4853515625
-0.4933166504
-0.4970703125
-0.4957580566
-0.5048217773
-0.5112915039
-0.5123901367
-0.5121459961
-0.5119018555
-0.5321655273
-0.5370178223
-0.535369873
-0.544921875
-0.5317077637
-0.5216369629
-0.5234069824
-0.5293273926
-0.5306091309
-0.5205078125
-0.5244750977
-0.5201721191
-0.5071411133
-0.5195922852
-0.5250854492
-0.5296020508
-0.5430908203
-0.5414428711
-0.5325317383
-0.5395812988
-0.5555419922
-0.5621032715
-0.5663146973
-0.5653076172
-0.5761108398
-0.5815734863
-0.5693969727
-0.5637207031
-0.5573730469
-0.5534362793
-0.5494995117
-0.5451965332
-0.5446166992
-0.5462036133
-0.5457763672
-0.545501709
-0.5552062988
-0.5659484863
-0.5736083984
-0.573638916
-0.5718994141
-0.5687561035
-0.5660095215
-0.5729370117
-0.576171875
-0.5717468262
-0.5648498535
-0.5731811523
-0.5792236328
-0.5729980469
-0.5675964355
-0.5716552734
-0.5852966309
-0.5760192871
-0.553314209
-0.5335998535
-0.5094299316
-0.5094299316
-0.5294799805
-0.5417175293
-0.5332336426
-0.5123596191
-0.5074462891
-0.5099487305
-0.5327758789
-0.553894043
-0.5609130859
-0.5679931641
-0.5454101562
-0.5436706543
-0.5485839844
-0.5463256836
-0.561706543
-0.5552368164
-0.5531616211
-0.5694885254
-0.6003112793
-0.5911560059
-0.5480957031
-0.5415039062
-0.5679626465
-0.6026306152
-0.5784606934
-0.5140686035
-0.4647827148
-0.4743347168
-0.4282226562
-0.2967224121
-0.1658325195
-0.008911132812
0.2653808594
0.5671386719
0.7449645996
0.9063415527
0.8274841309
0.6994018555
0.4631347656
-0.05499267578
-0.5727233887
-0.892578125
-0.8803100586
-0.8643188477
-0.7611999512
-0.5692749023
-0.4734191895
-0.4636230469
-0.5037231445
-0.4916992188
-0.4518737793
-0.4349975586
-0.4562988281
-0.4774169922
-0.4707336426
-0.4340515137
-0.435333252
-0.459197998
-0.4562072754
-0.4412231445
-0.4099121094
-0.4085083008
-0.419128418
-0.4085388184
-0.3907165527
-0.3730773926
-0.3734436035
-0.3664855957
-0.3450927734
-0.3302612305
-0.3056030273
-0.2809753418
-0.2602539062
-0.2266540527
-0.2114562988
-0.1950073242
-0.1605224609
-0.1233825684
-0.08853149414
-0.07144165039
-0.05114746094
-0.02194213867
0.0234375
0.06713867188
0.08099365234
0.1032714844
0.1212768555
0.1415100098
0.1672058105
0.1751098633
0.1767883301
0.1757202148
0.1696472168
0.1562194824
0.1424560547
0.1171264648
0.08062744141
0.04251098633
-0.0003051757812
-0.04858398438
-0.09323120117
-0.1365661621
-0.172454834
-0.2113952637
-0.2529296875
-0.2835083008
-0.3174133301
-0.3524169922
-0.3852539062
-0.4029846191
-0.4069824219
-0.4116821289
-0.4194030762
-0.432220459
-0.4378662109
-0.4347229004
-0.4441223145
-0.455871582
-0.4523010254
-0.4493408203
-0.4524536133
-0.4508666992
-0.4399108887
-0.4271240234
-0.4234008789
-0.4174804688
-0.4160461426
-0.4100952148
-0.4047851562
-0.411315918
-0.4046020508
-0.409576416
-0.4130859375
-0.4075012207
-0.4107971191
-0.4067382812
-0.4008178711
-0.399597168
-0.3981628418
-0.4002380371
-0.3916015625
-0.3895568848
-0.3966369629
-0.3829345703
-0.380645752
-0.3911437988
-0.4016723633
-0.4129333496
-0.426940918
-0.440032959
-0.4506225586
-0.4512939453
-0.4592895508
-0.481262207
-0.4906005859
-0.4975891113
-0.4971618652
-0.4967346191
-0.5032348633
-0.5067138672
-0.5033569336
-0.5026550293
-0.5073547363
-0.5101928711
-0.5164794922
-0.5192565918
-0.5261230469
-0.5430603027
-0.5274963379
-0.5135803223
-0.5191345215
-0.5079650879
-0.5038452148
-0.5101013184
-0.5205993652
-0.5257568359
-0.5336608887
-0.5336608887
-0.5008239746
-0.4976806641
-0.520324707
-0.5218811035
-0.5179443359
-0.5192871094
-0.527130127
-0.5211181641
-0.5173034668
-0.521697998
-0.5198364258
-0.514831543
-0.512878418
-0.5073547363
-0.5040283203
-0.5160522461
-0.5191040039
-0.5231018066
-0.524597168
-0.5135803223
-0.5290222168
-0.5376586914
-0.5262145996
-0.5346984863
-0.5494689941
-0.554107666
-0.5495605469
-0.547454834
-0.5539855957
-0.5686645508
-0.5706787109
-0.5665893555
-0.5543518066
-0.5429077148
-0.5536499023
-0.5512695312
-0.553527832
-0.5501098633
-0.5247802734
-0.5185546875
-0.521697998
-0.5224304199
-0.5142211914
-0.5072631836
-0.5257873535
-0.5326843262
-0.5353088379
-0.5495910645
-0.5659790039
-0.5794372559
-0.5670776367
-0.5657958984
-0.5747375488
-0.5894775391
-0.5965881348
-0.5787963867
-0.5771789551
-0.598449707
-0.6075439453
-0.5783691406
-0.5511779785
-0.5594177246
-0.5942993164
-0.605682373
-0.5667724609
-0.512298584
-0.4871826172
-0.503112793
-0.42578125
-0.298828125
-0.1874084473
0.004852294922
0.2830810547
0.5668945312
0.8215026855
0.9323425293
0.8143310547
0.6545715332
0.3134155273
-0.2350463867
-0.7585449219
-0.9214477539
-0.8696594238
-0.8864135742
-0.7647399902
-0.6241455078
-0.5247497559
-0.5211181641
-0.5558776855
-0.5175170898
-0.4836730957
-0.4816894531
-0.5102844238
-0.5157775879
-0.4784240723
-0.4503479004
-0.4741821289
-0.4861755371
-0.4750366211
-0.4506835938
-0.4258117676
-0.4288330078
-0.4384460449
-0.4434204102
-0.4297790527
-0.4093017578
-0.405090332
-0.4083557129
-0.3891296387
-0.3645935059
-0.3548583984
-0.3371887207
-0.3054199219
-0.2769165039
-0.2492370605
-0.2211914062
-0.1940917969
-0.1541137695
-0.112701416
-0.08395385742
-0.06185913086
-0.02169799805
0.02270507812
0.05715942383
0.09231567383
0.1094665527
0.1253356934
0.146270752
0.1468200684
0.1446533203
0.148651123
0.1482543945
0.1531677246
0.138092041
0.0901184082
0.05081176758
0.02426147461
0.006134033203
-0.01873779297
-0.0485534668
-0.07696533203
-0.1136779785
-0.1583251953
-0.2089233398
-0.2442932129
-0.278717041
-0.3132629395
-0.3410339355
-0.3675231934
-0.3904724121
-0.4032897949
-0.4124450684
-0.4201049805
-0.4157104492
-0.4130554199
-0.4066772461
-0.4133911133
-0.4305114746
-0.4302062988
-0.4344787598
-0.422668457
-0.4104003906
-0.4270935059
-0.4254760742
-0.4223327637
-0.4177856445
-0.4131164551
-0.423614502
-0.4179382324
-0.4185791016
-0.429107666
-0.4310302734
-0.428314209
-0.4214782715
-0.4158630371
-0.4215698242
-0.431060791
-0.4211120605
-0.4144287109
-0.4071960449
-0.3896484375
-0.3899536133
-0.386505127
-0.3819580078
-0.4012756348
-0.4103393555
-0.4207763672
-0.4394836426
-0.4395751953
-0.4610900879
-0.480255127
-0.4816894531
-0.48828125
-0.4912719727
-0.4984741211
-0.5039978027
-0.5079345703
-0.5050354004
-0.5134277344
-0.5197143555
-0.5127868652
-0.5187072754
-0.514831543
-0.5169372559
-0.518371582
-0.5170288086
-0.5194702148
-0.5087280273
-0.5262756348
-0.5331420898
-0.5151062012
-0.5225830078
-0.5240478516
-0.5283508301
-0.5343322754
-0.530456543
-0.5362243652
-0.5392456055
-0.5422058105
-0.5336303711
-0.5258483887
-0.5217590332
-0.522277832
-0.5332946777
-0.5346984863
-0.5376281738
-0.5530395508
-0.5642089844
-0.5621948242
-0.572479248
-0.5826721191
-0.5835266113
-0.5785522461
-0.5605773926
-0.5505981445
-0.5470581055
-0.5406799316
-0.5417175293
-0.5393676758
-0.5417785645
-0.557434082
-0.5624389648
-0.5687561035
-0.5592346191
-0.5505371094
-0.5541992188
-0.5388183594
-0.5393981934
-0.5280456543
-0.5157470703
-0.524017334
-0.5334777832
-0.5375671387
-0.5100097656
-0.5095825195
-0.5165710449
-0.5126342773
-0.5267028809
-0.5359802246
-0.5652160645
-0.5686645508
-0.559387207
-0.5718994141
-0.5602722168
-0.5707397461
-0.5828857422
-0.5764770508
-0.5806884766
-0.6128845215
-0.6393127441
-0.6138000488
-0.592010498
-0.5856933594
-0.615234375
-0.6242370605
-0.5757141113
-0.5062561035
-0.463684082
-0.4810791016
-0.3996887207
-0.2753295898
-0.1590270996
0.003784179688
0.2651062012
0.545501709
0.7578735352
0.8290100098
0.6971435547
0.5622253418
0.2297363281
-0.2903442383
-0.7636413574
-0.9071350098
-0.8697814941
-0.885345459
-0.7496337891
-0.602935791
-0.5122680664
-0.5167541504
-0.5410461426
-0.5036315918
-0.479888916
-0.4804992676
-0.5011901855
-0.514831543
-0.4847717285
-0.4598083496
-0.4778747559
-0.4912414551
-0.4830322266
-0.4517822266
-0.4309692383
-0.4280090332
-0.4213256836
-0.4077758789
-0.387878418
-0.3772888184
-0.3604736328
-0.3575744629
-0.3545227051
-0.3283996582
-0.3101501465
-0.2932128906
-0.2721862793
-0.2409057617
-0.2063293457
-0.171661377
-0.1417236328
-0.09838867188
-0.06283569336
-0.06170654297
-0.03723144531
0.0008239746094
0.04046630859
0.06976318359
0.08016967773
0.09133911133
0.09240722656
0.1094360352
0.1253662109
0.1190795898
0.1195373535
0.1122436523
0.09799194336
0.09747314453
0.07861328125
0.04174804688
0.01055908203
-0.02575683594
-0.06350708008
-0.1050109863
-0.1429748535
-0.1772460938
-0.2145080566
-0.2534179688
-0.2887878418
-0.3063964844
-0.3305664062
-0.3619689941
-0.3787231445
-0.3980407715
-0.4110412598
-0.414642334
-0.4355163574
-0.4571838379
-0.4588928223
-0.4652709961
-0.4733581543
-0.4746398926
-0.4757995605
-0.4753112793
-0.4834289551
-0.477935791
-0.4685058594
-0.4757385254
-0.4669494629
-0.447052002
-0.4535217285
-0.4544372559
-0.4474487305
-0.4571533203
-0.4624328613
-0.4605102539
-0.4514770508
-0.435760498
-0.4317932129
-0.4385681152
-0.448638916
-0.4526977539
-0.4494018555
-0.4467773438
-0.4368591309
-0.4265136719
-0.4229736328
-0.4338684082
-0.4334716797
-0.4386291504
-0.4516906738
-0.4483337402
-0.4452514648
-0.453125
-0.4715576172
-0.4791870117
-0.4947814941
-0.5127868652
-0.5210266113
-0.5237121582
-0.5168762207
-0.5270385742
-0.5388793945
-0.5375061035
-0.5377807617
-0.5479736328
-0.5632629395
-0.5546569824
-0.5427856445
-0.5319824219
-0.5215759277
-0.5185241699
-0.5163879395
-0.5123291016
-0.5103149414
-0.4975891113
-0.4961242676
-0.5107727051
-0.5118408203
-0.5237731934
-0.5175476074
-0.4964294434
-0.495513916
-0.5129699707
-0.5140380859
-0.5192260742
-0.5258178711
-0.520324707
-0.5186462402
-0.5127563477
-0.5336303711
-0.5257263184
-0.5008850098
-0.5055236816
-0.516418457
-0.5197753906
-0.5082092285
-0.5144348145
-0.5079345703
-0.4950866699
-0.5020751953
-0.5012207031
-0.4958496094
-0.487701416
-0.4920349121
-0.5034179688
-0.4942626953
-0.4843444824
-0.4861755371
-0.4975280762
-0.505065918
-0.5044250488
-0.5385437012
-0.5646972656
-0.5597229004
-0.5602722168
-0.5543823242
-0.5693969727
-0.5905151367
-0.5870056152
-0.5829772949
-0.604309082
-0.6329040527
-0.627532959
-0.6039123535
-0.6023254395
-0.6420898438
-0.6719360352
-0.6378173828
-0.5612487793
-0.5100097656
-0.5178222656
-0.4571228027
-0.3198547363
-0.1937561035
-0.04434204102
0.2191772461
0.5204162598
0.7418823242
0.8787841797
0.7720947266
0.6489562988
0.4025878906
-0.1153869629
-0.6348571777
-0.8981933594
-0.8742370605
-0.8799438477
-0.7889404297
-0.6239318848
-0.5104064941
-0.4978027344
-0.5419921875
-0.5127258301
-0.4710083008
-0.463104248
-0.5048828125
-0.5289001465
-0.5004577637
-0.473449707
-0.4723510742
-0.4960021973
-0.5123291016
-0.4883117676
-0.4576721191
-0.4400939941
-0.4385681152
-0.4287109375
-0.4091186523
-0.4082336426
-0.4002685547
-0.3791809082
-0.3673706055
-0.3507995605
-0.330657959
-0.3180236816
-0.2897338867
-0.2668762207
-0.2392578125
-0.2208557129
-0.2059631348
-0.1652832031
-0.1431884766
-0.111328125
-0.08544921875
-0.06964111328
-0.02630615234
0.01715087891
0.03961181641
0.05191040039
0.0676574707
0.08999633789
0.1110534668
0.1112670898
0.1044616699
0.1092529297
0.1004333496
0.0725402832
0.05218505859
0.02374267578
-0.02487182617
-0.0615234375
-0.09652709961
-0.1444091797
-0.1807556152
-0.2097167969
-0.2396240234
-0.2786254883
-0.3144226074
-0.3402404785
-0.370513916
-0.3940429688
-0.4236755371
-0.4538574219
-0.4652099609
-0.4797668457
-0.4909973145
-0.4899902344
-0.4872131348
-0.4852294922
-0.486541748
-0.4923706055
-0.4965515137
-0.4865722656
-0.4749145508
-0.4736328125
-0.4768676758
-0.4808959961
-0.4822998047
-0.4649963379
-0.4477844238
-0.4333190918
-0.4274902344
-0.4452209473
-0.4501342773
-0.4587097168
-0.4555053711
-0.4436035156
-0.438873291
-0.4367370605
-0.443359375
-0.4390258789
-0.4366149902
-0.4251403809
-0.413482666
-0.419708252
-0.4269714355
-0.4288635254
-0.4234924316
-0.4251708984
-0.4365844727
-0.4458007812
-0.4534301758
-0.4570007324
-0.459197998
-0.4689025879
-0.4801025391
-0.470916748
-0.4711303711
-0.4918518066
-0.4895935059
-0.4944763184
-0.5109558105
-0.5142822266
-0.5372619629
-0.551940918
-0.5539855957
-0.5606994629
-0.5650939941
-0.5665283203
-0.5557861328
-0.5512695312
-0.5508422852
-0.5609130859
-0.5631408691
-0.5453796387
-0.5308837891
-0.5285949707
-0.5302429199
-0.533203125
-0.523651123
-0.5096130371
-0.5209350586
-0.5167236328
-0.5000610352
-0.486328125
-0.4663391113
-0.4635620117
-0.4744262695
-0.4774475098
-0.4643249512
-0.47265625
-0.4941101074
-0.4971008301
-0.5108947754
-0.525604248
-0.5469360352
-0.5622558594
-0.5492553711
-0.5396118164
-0.548248291
-0.5747070312
-0.5747375488
-0.5562744141
-0.5704650879
-0.6067810059
-0.6260375977
-0.6136779785
-0.5888366699
-0.5937805176
-0.629119873
-0.6526794434
-0.6363525391
-0.5749511719
-0.5202026367
-0.5304260254
-0.4719238281
-0.334564209
-0.2236328125
-0.07376098633
0.1932373047
0.4955749512
0.7050476074
0.860168457
0.7758178711
0.6437988281
0.3845825195
-0.1502380371
-0.677154541
-0.9649658203
-0.9211425781
-0.9064941406
-0.8095397949
-0.6340026855
-0.5404968262
-0.5315551758
-0.5765991211
-0.5534362793
-0.5094604492
-0.4961547852
-0.5195007324
-0.535736084
-0.5025939941
-0.4512634277
-0.4534606934
-0.4821472168
-0.4996643066
-0.484375
-0.4583129883
-0.4479980469
-0.4371032715
-0.4328918457
-0.4211730957
-0.3959350586
-0.3963928223
-0.4036560059
-0.3886108398
-0.3728942871
-0.3532714844
-0.3312988281
-0.2897338867
-0.2569274902
-0.2336425781
-0.1969299316
-0.1747436523
-0.1429748535
-0.09756469727
-0.07275390625
-0.06094360352
-0.03811645508
0.006011962891
0.04779052734
0.06719970703
0.09271240234
0.1106872559
0.1226806641
0.1466064453
0.1536254883
0.1332092285
0.1261901855
0.1182250977
0.09225463867
0.05914306641
0.01766967773
-0.00390625
-0.03799438477
-0.0783996582
-0.1268005371
-0.174621582
-0.2069091797
-0.2369384766
-0.2540588379
-0.2862854004
-0.3111877441
-0.3475036621
-0.3985595703
-0.4311828613
-0.4463500977
-0.4432983398
-0.4498291016
-0.4574279785
-0.4690856934
-0.4831237793
-0.4819946289
-0.4828186035
-0.4899902344
-0.4942932129
-0.4969787598
-0.4942626953
-0.4911499023
-0.4897460938
-0.4793701172
-0.4789733887
-0.4711914062
-0.4617004395
-0.4638671875
-0.455291748
-0.4454650879
-0.4488830566
-0.4480285645
-0.4481201172
-0.4618835449
-0.4633789062
-0.4681091309
-0.4696044922
-0.4710998535
-0.4708862305
-0.4614257812
-0.4684143066
-0.4692993164
-0.4657592773
-0.4572753906
-0.448059082
-0.4411010742
-0.4459533691
-0.4700927734
-0.477722168
-0.4820556641
-0.4902648926
-0.4956054688
-0.5035095215
-0.5097045898
-0.5196838379
-0.5229797363
-0.52734375
-0.5267333984
-0.5102844238
-0.5210266113
-0.5396728516
-0.5391540527
-0.5482788086
-0.552734375
-0.5456848145
-0.5578918457
-0.5467529297
-0.5264587402
-0.5311279297
-0.5270996094
-0.5363769531
-0.5411071777
-0.5345458984
-0.5436401367
-0.5586547852
-0.5534973145
-0.5520019531
-0.5574035645
-0.5565490723
-0.5774841309
-0.5705871582
-0.5420837402
-0.5369873047
-0.5243835449
-0.5308837891
-0.5459594727
-0.5407714844
-0.5461120605
-0.5378723145
-0.5217285156
-0.5269165039
-0.5189208984
-0.528717041
-0.5597839355
-0.5511169434
-0.5375061035
-0.5421142578
-0.5661621094
-0.5759277344
-0.5679626465
-0.5664367676
-0.5855712891
-0.6188354492
-0.6107177734
-0.5870056152
-0.578918457
-0.597076416
-0.6395263672
-0.6300354004
-0.5766906738
-0.5261535645
-0.514251709
-0.4631652832
-0.328125
-0.2155151367
-0.0832824707
0.1436157227
0.4577941895
0.6973571777
0.8948059082
0.8711547852
0.7083129883
0.5074462891
0.01174926758
-0.554901123
-0.9058837891
-0.9158935547
-0.8863220215
-0.8167724609
-0.6376342773
-0.5079650879
-0.4847412109
-0.5322875977
-0.508392334
-0.4723815918
-0.4599914551
-0.4753723145
-0.5170288086
-0.5070495605
-0.4720153809
-0.4645385742
-0.477722168
-0.507019043
-0.50390625
-0.4834594727
-0.4669799805
-0.4614868164
-0.4527587891
-0.4388122559
-0.4249572754
-0.4042358398
-0.4027404785
-0.3940124512
-0.3726501465
-0.3477172852
-0.336517334
-0.3272399902
-0.2872009277
-0.2528686523
-0.2315979004
-0.2053527832
-0.1684265137
-0.1294250488
-0.1014099121
-0.07385253906
-0.05078125
-0.00634765625
0.05178833008
0.07391357422
0.08648681641
0.09585571289
0.1095275879
0.1260070801
0.114654541
0.1070556641
0.1159362793
0.1090698242
0.08920288086
0.06118774414
0.02844238281
-0.0006408691406
-0.02313232422
-0.04376220703
-0.08209228516
-0.1133422852
-0.1488342285
-0.1866149902
-0.2238769531
-0.2633972168
-0.2904968262
-0.3187866211
-0.3533935547
-0.3857116699
-0.3918762207
-0.3941955566
-0.4237365723
-0.4524230957
-0.4635314941
-0.4789428711
-0.4833984375
-0.4812011719
-0.4855041504
-0.4817199707
-0.4719848633
-0.463684082
-0.459777832
-0.4551086426
-0.4518737793
-0.4448547363
-0.4367980957
-0.4289550781
-0.4141235352
-0.4154968262
-0.4237060547
-0.4158325195
-0.4099121094
-0.4206542969
-0.4123535156
-0.3993225098
-0.4087524414
-0.4119567871
-0.4151916504
-0.4150085449
-0.4174804688
-0.4312133789
-0.428527832
-0.4119567871
-0.4189758301
-0.4383544922
-0.4564819336
-0.4623413086
-0.4708862305
-0.4978942871
-0.5042724609
-0.5213012695
-0.5395812988
-0.5507202148
-0.5692443848
-0.5788574219
-0.5751953125
-0.5653686523
-0.5635681152
-0.5680236816
-0.5797424316
-0.5848083496
-0.5966186523
-0.6090698242
-0.5972900391
-0.5812072754
-0.585357666
-0.5886230469
-0.59375
-0.5993652344
-0.5941467285
-0.5960693359
-0.594909668
-0.5917358398
-0.5835571289
-0.5712280273
-0.5586853027
-0.5544128418
-0.5668334961
-0.5710144043
-0.5588378906
-0.5630187988
-0.5635375977
-0.5500793457
-0.5454406738
-0.5239257812
-0.5243225098
-0.5284729004
-0.5183410645
-0.523651123
-0.5190734863
-0.5178222656
-0.5273132324
-0.5395812988
-0.5386657715
-0.5473937988
-0.559967041
-0.5613098145
-0.5569152832
-0.5471191406
-0.5606994629
-0.573059082
-0.5764160156
-0.5798950195
-0.5952453613
-0.6285705566
-0.6376342773
-0.6076660156
-0.5771179199
-0.5908508301
-0.6172485352
-0.6132202148
-0.5781555176
-0.5203552246
-0.5032043457
-0.466796875
-0.3482971191
-0.2298278809
-0.08404541016
0.1300048828
0.3743591309
0.6499328613
0.8922424316
0.9107971191
0.7303161621
0.5273742676
0.1856079102
-0.4273376465
-0.8309631348
-0.820098877
-0.8375244141
-0.8203430176
-0.7002258301
-0.5823059082
-0.5057373047
-0.5276489258
-0.5163879395
-0.4834899902
-0.4553527832
-0.4711303711
-0.5121765137
-0.4995422363
-0.4703979492
-0.4530029297
-0.478729248
-0.4961547852
-0.4790039062
-0.4477539062
-0.4220581055
-0.4232788086
-0.4222717285
-0.4019775391
-0.3890686035
-0.3890686035
-0.3932800293
-0.395904541
-0.3768920898
-0.3600769043
-0.3289489746
-0.2969360352
-0.2857055664
-0.2630615234
-0.2461242676
-0.2235717773
-0.1882019043
-0.1533508301
-0.1234436035
-0.1087341309
-0.08578491211
-0.0495300293
-0.01434326172
0.01858520508
0.02795410156
0.0283203125
0.03924560547
0.05337524414
0.05844116211
0.04913330078
0.02621459961
0.0110168457
0.006744384766
-0.01754760742
-0.03857421875
-0.06100463867
-0.08624267578
-0.1051940918
-0.1241149902
-0.1516113281
-0.1901245117
-0.2132263184
-0.2341003418
-0.2671508789
-0.288848877
-0.2941589355
-0.3183898926
-0.3549804688
-0.383026123
-0.3955078125
-0.3915405273
-0.4037475586
-0.4174194336
-0.4320373535
-0.4410400391
-0.4313049316
-0.4393615723
-0.4420471191
-0.4288024902
-0.4166259766
-0.4127197266
-0.4030456543
-0.3874511719
-0.3986816406
-0.4033508301
-0.4051513672
-0.4143676758
-0.4104309082
-0.4143676758
-0.4180603027
-0.4213867188
-0.4192199707
-0.4172973633
-0.4125671387
-0.4030761719
-0.4043273926
-0.407623291
-0.4169311523
-0.4140625
-0.4104309082
-0.4153747559
-0.4112548828
-0.410369873
-0.4072875977
-0.4016418457
-0.4251708984
-0.4447631836
-0.4436340332
-0.4546813965
-0.4585876465
-0.4759216309
-0.491394043
-0.4951477051
-0.5111999512
-0.5161437988
-0.5288391113
-0.5328369141
-0.5424499512
-0.5518493652
-0.5483093262
-0.5568237305
-0.5517578125
-0.5618286133
-0.5791625977
-0.5851745605
-0.5928039551
-0.5840759277
-0.5772094727
-0.5799255371
-0.5860290527
-0.5818786621
-0.5756225586
-0.5910339355
-0.5919189453
-0.5942687988
-0.6054992676
-0.6016235352
-0.5995483398
-0.610534668
-0.6090698242
-0.5914916992
-0.5786437988
-0.5708007812
-0.5606384277
-0.5510253906
-0.5493774414
-0.5428161621
-0.5406799316
-0.5498962402
-0.5536499023
-0.5475158691
-0.537689209
-0.5310058594
-0.5510559082
-0.5679321289
-0.5614624023
-0.5805053711
-0.6004638672
-0.5818481445
-0.5741882324
-0.5896911621
-0.6144104004
-0.6360778809
-0.635559082
-0.6356201172
-0.6414794922
-0.6701965332
-0.6739196777
-0.6369934082
-0.6226806641
-0.6362915039
-0.6643066406
-0.6508178711
-0.5928039551
-0.5276489258
-0.5276794434
-0.4885864258
-0.3520202637
-0.237701416
-0.109588623
0.1052856445
0.4085693359
0.6382446289
0.8066711426
0.7661132812
0.6213378906
0.4047241211
-0.05627441406
-0.5795288086
-0.9234924316
-0.902557373
-0.8701477051
-0.8026428223
-0.6332702637
-0.5164489746
-0.4866943359
-0.5370178223
-0.5325012207
-0.494140625
-0.4710693359
-0.4880981445
-0.5179443359
-0.5146789551
-0.4757080078
-0.4621276855
-0.4895935059
-0.4977722168
-0.4606628418
-0.4314880371
-0.4264831543
-0.4205932617
-0.4114379883
-0.4029541016
-0.3859863281
-0.3781433105
-0.3827514648
-0.3638000488
-0.3578491211
-0.3370361328
-0.303527832
-0.2855834961
-0.2654418945
-0.2463378906
-0.2247619629
-0.2063293457
-0.1683959961
-0.1345825195
-0.1018371582
-0.0744934082
-0.05047607422
0.002899169922
0.04748535156
0.07467651367
0.07894897461
0.08486938477
0.1103515625
0.1284179688
0.1391906738
0.1357727051
0.1295166016
0.1218261719
0.09530639648
0.06588745117
0.0368347168
-0.01159667969
-0.04046630859
-0.07208251953
-0.1108703613
-0.1314086914
-0.1719665527
-0.2071838379
-0.2343444824
-0.2617797852
-0.2963256836
-0.3161010742
-0.3280029297
-0.3592224121
-0.3742980957
-0.3798217773
-0.3800048828
-0.3906555176
-0.4157104492
-0.4267578125
-0.4240722656
-0.4298706055
-0.443145752
-0.4465026855
-0.4437255859
-0.4403381348
-0.4421691895
-0.4501342773
-0.4416809082
-0.424987793
-0.4194641113
-0.3985900879
-0.3837585449
-0.3903808594
-0.3936157227
-0.3872680664
-0.3847045898
-0.3820800781
-0.3658447266
-0.3690795898
-0.3938293457
-0.4086303711
-0.4125671387
-0.4069824219
-0.3948364258
-0.3939208984
-0.3924560547
-0.38671875
-0.3938598633
-0.4034729004
-0.4089050293
-0.4147949219
-0.4300842285
-0.4382324219
-0.4433898926
-0.4538269043
-0.4562988281
-0.4471130371
-0.4400634766
-0.4517211914
-0.4494628906
-0.4526062012
-0.4801635742
-0.4986877441
-0.5124511719
-0.5126647949
-0.5012512207
-0.5009460449
-0.5016479492
-0.5050964355
-0.5045776367
-0.5105285645
-0.5294189453
-0.5251159668
-0.5117492676
-0.5170898438
-0.522064209
-0.5109558105
-0.507232666
-0.5153503418
-0.5199584961
-0.5188903809
-0.5321655273
-0.5374755859
-0.5231933594
-0.522644043
-0.5367431641
-0.5468139648
-0.5440979004
-0.5540466309
-0.5512695312
-0.5462646484
-0.5573730469
-0.5454406738
-0.5451965332
-0.5531921387
-0.5344543457
-0.5193786621
-0.5216674805
-0.5371398926
-0.545715332
-0.5378723145
-0.5274047852
-0.5175476074
-0.5178222656
-0.5120849609
-0.5030212402
-0.4904174805
-0.4766845703
-0.4898071289
-0.5130310059
-0.5182495117
-0.5023193359
-0.5049133301
-0.5158996582
-0.514251709
-0.528717041
-0.5551147461
-0.5779418945
-0.5718994141
-0.5651245117
-0.5567626953
-0.5551147461
-0.5761413574
-0.5651855469
-0.5542297363
-0.569152832
-0.6039428711
-0.6289672852
-0.6070251465
-0.5714416504
-0.5693359375
-0.6005554199
-0.5868225098
-0.5431518555
-0.4981689453
-0.4809265137
-0.4899902344
-0.378112793
-0.2524108887
-0.1457824707
0.05319213867
0.3657226562
0.6241149902
0.8398132324
0.9144287109
0.7886352539
0.6429138184
0.2133483887
-0.3337097168
-0.7925720215
-0.9252624512
-0.8647766113
-0.8410949707
-0.665802002
-0.5180053711
-0.4723815918
-0.5086669922
-0.5319519043
-0.5010070801
-0.4821777344
-0.5009765625
-0.5327148438
-0.527130127
-0.4944152832
-0.4649963379
-0.4629516602
-0.4774475098
-0.4774475098
-0.4538879395
-0.4208374023
-0.4120178223
-0.411315918
-0.3971557617
-0.3861083984
-0.3802490234
-0.3680114746
-0.3608703613
-0.3547973633
-0.3352661133
-0.3278503418
-0.3066101074
-0.275177002
-0.247253418
-0.2119750977
-0.1970825195
-0.1662902832
-0.1211547852
-0.08410644531
-0.04598999023
-0.01821899414
0.01422119141
0.04748535156
0.06979370117
0.08688354492
0.1018371582
0.1215515137
0.1383666992
0.1471252441
0.1450500488
0.1191101074
0.1123046875
0.108581543
0.07376098633
0.03802490234
-0.001739501953
-0.03271484375
-0.06777954102
-0.1130981445
-0.155090332
-0.1969909668
-0.236541748
-0.2740783691
-0.3104858398
-0.3456420898
-0.3811950684
-0.406829834
-0.4306945801
-0.4581604004
-0.4618835449
-0.4658508301
-0.4879150391
-0.5014953613
-0.5028686523
-0.5139465332
-0.5149841309
-0.519317627
-0.5318908691
-0.5270996094
-0.5097045898
-0.4878540039
-0.4930114746
-0.5158081055
-0.5242919922
-0.5182495117
-0.506652832
-0.492980957
-0.4807434082
-0.4776611328
-0.4779663086
-0.484375
-0.4857177734
-0.4689331055
-0.4625244141
-0.4666137695
-0.4742431641
-0.4757080078
-0.4782714844
-0.4756774902
-0.4746704102
-0.4736328125
-0.4565124512
-0.448059082
-0.4452209473
-0.461517334
-0.476776123
-0.4826660156
-0.4839172363
-0.4882507324
-0.4991149902
-0.503692627
-0.5204467773
-0.5233764648
-0.5148620605
-0.5157470703
-0.5134277344
-0.5134887695
-0.5183105469
-0.5148925781
-0.5136108398
-0.514465332
-0.5011901855
-0.4999084473
-0.5027160645
-0.5068054199
-0.5054626465
-0.5026550293
-0.525390625
-0.5325317383
-0.5263671875
-0.5232543945
-0.5303039551
-0.5389099121
-0.5319213867
-0.5274658203
-0.5230102539
-0.5221557617
-0.5319519043
-0.5296020508
-0.5239868164
-0.5244750977
-0.5291137695
-0.530456543
-0.5307617188
-0.5489501953
-0.5350341797
-0.5252685547
-0.5318603516
-0.5181274414
-0.5213623047
-0.5267333984
-0.5196838379
-0.5220336914
-0.5210571289
-0.522277832
-0.5342407227
-0.5225524902
-0.5231628418
-0.5270080566
-0.5270080566
-0.5356445312
-0.5341796875
-0.5338134766
-0.5185852051
-0.5225219727
-0.5368347168
-0.545715332
-0.5464172363
-0.5389709473
-0.552154541
-0.5438537598
-0.5122680664
-0.4883117676
-0.4678039551
-0.4611816406
-0.4755554199
-0.4786987305
-0.4658508301
-0.4585571289
-0.4575500488
-0.453338623
-0.4527893066
-0.4803161621
-0.5192565918
-0.5303344727
-0.5243530273
-0.5113830566
-0.5184631348
-0.5272521973
-0.5201721191
-0.5206604004
-0.529296875
-0.5583190918
-0.5635070801
-0.5312805176
-0.5107727051
-0.5370788574
-0.5797424316
-0.5706481934
-0.5260925293
-0.4679260254
-0.4407653809
-0.453704834
-0.352142334
-0.2179870605
-0.1012573242
0.09567260742
0.404296875
0.6631469727
0.8643188477
0.9237976074
0.8039550781
0.6620178223
0.2313842773
-0.322265625
-0.7727050781
-0.8943481445
-0.8345336914
-0.8194885254
-0.658996582
-0.5019836426
-0.4409790039
-0.4612121582
-0.4925537109
-0.4727783203
-0.4391784668
-0.4309387207
-0.4569702148
-0.4607543945
-0.4320373535
-0.4409790039
-0.4574279785
-0.4739685059
-0.4200134277
-0.3389587402
-0.3387145996
-0.3907470703
-0.4542541504
-0.4537963867
-0.4149780273
-0.3859863281
-0.3725280762
-0.3483276367
-0.3286132812
-0.3283996582
-0.2979736328
-0.2482910156
-0.2109680176
-0.1846923828
-0.1761474609
-0.166015625
-0.1121520996
-0.05258178711
-0.03726196289
-0.03433227539
-0.008453369141
0.03100585938
0.07116699219
0.1019592285
0.1152038574
0.1191101074
0.136932373
0.1556396484
0.1575622559
0.1616821289
0.1528015137
0.1334533691
0.1154174805
0.1000671387
0.07574462891
0.05563354492
0.03009033203
-0.01312255859
-0.05047607422
-0.09002685547
-0.1289978027
-0.172088623
-0.2041931152
-0.2384643555
-0.2699890137
-0.2942504883
-0.3179931641
-0.3412475586
-0.3716430664
-0.381439209
-0.3873291016
-0.4149169922
-0.4374084473
-0.435546875
-0.4326171875
-0.4435424805
-0.4524841309
-0.4494628906
-0.4482727051
-0.4430847168
-0.4392089844
-0.4370727539
-0.4272155762
-0.4249267578
-0.4149475098
-0.4094238281
-0.4174499512
-0.4080810547
-0.4097290039
-0.4142456055
-0.415222168
-0.4201660156
-0.4195556641
-0.4184875488
-0.4072875977
-0.404083252
-0.4051818848
-0.4015808105
-0.4098815918
-0.4167175293
-0.4072875977
-0.3932189941
-0.3976745605
-0.4283752441
-0.4544372559
-0.4597473145
-0.4515686035
-0.4514770508
-0.4558105469
-0.4667358398
-0.4913330078
-0.5011901855
-0.5086975098
-0.5087890625
-0.4980163574
-0.5060424805
-0.5030212402
-0.5016174316
-0.5118713379
-0.5073547363
-0.5079956055
-0.5136108398
-0.5115661621
-0.4897155762
-0.479675293
-0.4886169434
-0.5051574707
-0.5180053711
-0.51953125
-0.5281066895
-0.5309753418
-0.5339660645
-0.5399780273
-0.5444946289
-0.5365905762
-0.5294799805
-0.5292053223
-0.532623291
-0.5370788574
-0.5366210938
-0.5445556641
-0.5411071777
-0.5334472656
-0.5330810547
-0.5325012207
-0.5361022949
-0.5360717773
-0.5405273438
-0.5424194336
-0.5368652344
-0.5390930176
-0.5379638672
-0.543762207
-0.5433654785
-0.5279846191
-0.5239257812
-0.5223083496
-0.5256958008
-0.5320129395
-0.5358886719
-0.541595459
-0.5280761719
-0.5184936523
-0.5307312012
-0.5418395996
-0.5651245117
-0.5551757812
-0.5302124023
-0.5310974121
-0.5236206055
-0.5140075684
-0.4933776855
-0.4853820801
-0.4989318848
-0.5050354004
-0.4936828613
-0.4732971191
-0.4772338867
-0.4823913574
-0.4932250977
-0.5141601562
-0.5192871094
-0.5288391113
-0.5304870605
-0.5183105469
-0.5082397461
-0.5347290039
-0.5718688965
-0.5774536133
-0.5651855469
-0.5648193359
-0.5866088867
-0.5848083496
-0.559753418
-0.5390930176
-0.5439758301
-0.5784301758
-0.5942077637
-0.5657043457
-0.5000305176
-0.4736633301
-0.4751281738
-0.3825073242
-0.2661743164
-0.1377258301
0.06115722656
0.3036499023
0.5752258301
0.8344726562
0.9537963867
0.8518676758
0.6742248535
0.3982543945
-0.148223877
-0.7049865723
-0.8428649902
-0.816192627
-0.8350830078
-0.7375183105
-0.5998535156
-0.5015869141
-0.5055541992
-0.5148620605
-0.4716186523
-0.4395446777
-0.4358520508
-0.4694519043
-0.4789428711
-0.4490966797
-0.4280090332
-0.4443969727
-0.4650878906
-0.4674987793
-0.4496765137
-0.4287414551
-0.4234008789
-0.4250793457
-0.4116821289
-0.3758239746
-0.3518066406
-0.356842041
-0.3492736816
-0.333404541
-0.318572998
-0.2756958008
-0.2519226074
-0.223236084
-0.2037658691
-0.1977233887
-0.1798706055
-0.1694946289
-0.1354370117
-0.1127319336
-0.09225463867
-0.07186889648
-0.05267333984
-0.01620483398
0.01440429688
0.03158569336
0.03918457031
0.05706787109
0.06979370117
0.08163452148
0.07824707031
0.06872558594
0.0700378418
0.05972290039
0.04092407227
0.01348876953
-0.01519775391
-0.04586791992
-0.07168579102
-0.09936523438
-0.1316223145
-0.1675109863
-0.1979064941
-0.2092895508
-0.2429199219
-0.2904968262
-0.3273620605
-0.3619384766
-0.3793640137
-0.3941040039
-0.4023132324
-0.3987121582
-0.4085693359
-0.433807373
-0.4519042969
-0.4453430176
-0.435546875
-0.443572998
-0.4595031738
-0.469909668
-0.4780273438
-0.4750976562
-0.4720153809
-0.4697570801
-0.4647521973
-0.4730834961
-0.4696350098
-0.4807434082
-0.4850463867
-0.4764709473
-0.4711608887
-0.4432678223
-0.4361877441
-0.4234924316
-0.4130554199
-0.4182128906
-0.4133605957
-0.4273986816
-0.4287414551
-0.4161682129
-0.4143981934
-0.4069824219
-0.4023132324
-0.4044189453
-0.4107055664
-0.4182434082
-0.4385375977
-0.4552001953
-0.4559631348
-0.4618225098
-0.4694213867
-0.4956970215
-0.5053100586
-0.5031433105
-0.5153808594
-0.518737793
-0.5203857422
-0.5050354004
-0.5056762695
-0.505859375
-0.5062866211
-0.5165405273
-0.513671875
-0.510345459
-0.505065918
-0.5114440918
-0.5149536133
-0.5162658691
-0.5263366699
-0.5377197266
-0.5346984863
-0.5173339844
-0.5119628906
-0.524810791
-0.5272216797
-0.5278625488
-0.522064209
-0.5186462402
-0.5365905762
-0.533416748
-0.532409668
-0.5420532227
-0.5390014648
-0.5377502441
-0.5353088379
-0.5350036621
-0.536315918
-0.5381164551
-0.5410766602
-0.546081543
-0.5489807129
-0.5426635742
-0.5330810547
-0.5230407715
-0.5201416016
-0.5218200684
-0.5255737305
-0.5299987793
-0.5274047852
-0.5219726562
-0.527557373
-0.5264587402
-0.5352172852
-0.5375671387
-0.5213623047
-0.5241088867
-0.5288696289
-0.5395202637
-0.5411071777
-0.5278015137
-0.5242004395
-0.5236206055
-0.5074768066
-0.4864501953
-0.4738769531
-0.4559631348
-0.4468994141
-0.4645385742
-0.4736633301
-0.4628295898
-0.463470459
-0.4684753418
-0.4790344238
-0.4934997559
-0.506072998
-0.5335388184
-0.5384216309
-0.5355224609
-0.5448303223
-0.5486450195
-0.5639648438
-0.5623474121
-0.5544433594
-0.554901123
-0.5713195801
-0.5943908691
-0.577911377
-0.552520752
-0.5498657227
-0.5879516602
-0.6023254395
-0.5547485352
-0.4885864258
-0.4610595703
-0.4717712402
-0.3717651367
-0.2408447266
-0.1235961914
0.05233764648
0.3338928223
0.5868225098
0.7795715332
0.859375
0.7416992188
0.6141662598
0.2572021484
-0.263458252
-0.7378845215
-0.8903198242
-0.8428649902
-0.8302001953
-0.6765441895
-0.5400085449
-0.4745788574
-0.5020141602
-0.5305175781
-0.4970397949
-0.4679870605
-0.4690856934
-0.4987487793
-0.5173034668
-0.5012512207
-0.4758911133
-0.4789733887
-0.4891052246
-0.481048584
-0.4442138672
-0.4150085449
-0.4085693359
-0.4061584473
-0.3942565918
-0.3695983887
-0.3451538086
-0.3526916504
-0.3635559082
-0.3506774902
-0.3493041992
-0.332244873
-0.3127441406
-0.2858886719
-0.2390441895
-0.2099609375
-0.1924438477
-0.1667175293
-0.1277160645
-0.09307861328
-0.07067871094
-0.04815673828
-0.006011962891
0.04434204102
0.08325195312
0.09582519531
0.1047668457
0.1313476562
0.1390380859
0.1399536133
0.1348876953
0.1163330078
0.1223449707
0.121673584
0.09048461914
0.06643676758
0.03814697266
0.0007629394531
-0.03237915039
-0.06491088867
-0.09771728516
-0.1326904297
-0.1700439453
-0.2100219727
-0.2463684082
-0.2721252441
-0.2911682129
-0.3267211914
-0.3566589355
-0.3780212402
-0.4002380371
-0.4183654785
-0.4344482422
-0.4380187988
-0.4541931152
-0.4640197754
-0.4596252441
-0.4616699219
-0.4635314941
-0.4659118652
-0.4589233398
-0.4520568848
-0.4603271484
-0.4605102539
-0.4503173828
-0.4359130859
-0.423614502
-0.4130249023
-0.4072265625
-0.4108886719
-0.4086608887
-0.4151000977
-0.4132080078
-0.4168701172
-0.424407959
-0.4103088379
-0.4037780762
-0.3985595703
-0.3968505859
-0.4114379883
-0.4070129395
-0.4084472656
-0.4287719727
-0.4133300781
-0.4045410156
-0.4205627441
-0.4340515137
-0.4392089844
-0.4409790039
-0.4368896484
-0.4406738281
-0.4608764648
-0.4624938965
-0.4712524414
-0.4703369141
-0.4766540527
-0.494354248
-0.4850769043
-0.491394043
-0.5043029785
-0.5115966797
-0.507598877
-0.503112793
-0.5066833496
-0.5101928711
-0.5187988281
-0.5262756348
-0.5342712402
-0.5421142578
-0.5484313965
-0.5434875488
-0.5399780273
-0.5364379883
-0.5347290039
-0.5384216309
-0.5338439941
-0.529510498
-0.5293884277
-0.5334472656
-0.5366210938
-0.5440063477
-0.544708252
-0.5404968262
-0.547088623
-0.5547485352
-0.528137207
-0.5116577148
-0.5302734375
-0.5326538086
-0.5465087891
-0.5484313965
-0.5481262207
-0.5570373535
-0.5391235352
-0.5343017578
-0.5333251953
-0.5314941406
-0.5252990723
-0.526550293
-0.532989502
-0.5228271484
-0.5351257324
-0.5326538086
-0.5156860352
-0.5157165527
-0.5168762207
-0.5244750977
-0.5251159668
-0.5090637207
-0.4984436035
-0.5043945312
-0.5194702148
-0.5171203613
-0.5086669922
-0.507019043
-0.498260498
-0.4961853027
-0.4845581055
-0.4780883789
-0.4691467285
-0.4619140625
-0.4719238281
-0.4808654785
-0.4917907715
-0.484161377
-0.4723510742
-0.4730224609
-0.4801025391
-0.4898681641
-0.4957885742
-0.505065918
-0.505645752
-0.4954833984
-0.4873962402
-0.5026855469
-0.5290222168
-0.5225524902
-0.5187072754
-0.5472106934
-0.5766906738
-0.5764465332
-0.5470275879
-0.5291137695
-0.5602111816
-0.5997924805
-0.5750427246
-0.5203857422
-0.4572753906
-0.4391174316
-0.4032592773
-0.2747497559
-0.1643066406
-0.03790283203
0.1917419434
0.5044250488
0.7257080078
0.8989868164
0.8653259277
0.7402038574
0.5400085449
0.04876708984
-0.4713439941
-0.8510437012
-0.8745117188
-0.844329834
-0.7969970703
-0.6042175293
-0.4769592285
-0.4588012695
-0.5058898926
-0.5084533691
-0.4733581543
-0.4405822754
-0.4601135254
-0.5008239746
-0.4788513184
-0.443572998
-0.4512634277
-0.465057373
-0.4827270508
-0.473449707
-0.4437561035
-0.4319152832
-0.4267272949
-0.4158935547
-0.3821716309
-0.3550415039
-0.3513793945
-0.3494873047
-0.3440856934
-0.3311462402
-0.3107910156
-0.2985839844
-0.2731018066
-0.2380981445
-0.2151794434
-0.2000427246
-0.1908874512
-0.1576538086
-0.108215332
-0.0774230957
-0.05810546875
-0.02230834961
0.02816772461
0.06173706055
0.08227539062
0.09753417969
0.1240234375
0.1597290039
0.1650695801
0.1601867676
0.1558532715
0.1453857422
0.1454162598
0.1358642578
0.1171875
0.08041381836
0.04296875
0.01208496094
-0.03884887695
-0.06918334961
-0.1088867188
-0.1619567871
-0.2044372559
-0.248840332
-0.2769165039
-0.3059997559
-0.3384399414
-0.3694763184
-0.4092407227
-0.4217834473
-0.4250793457
-0.4449768066
-0.4579162598
-0.467010498
-0.4753417969
-0.4877624512
-0.4855651855
-0.4795227051
-0.487701416
-0.489440918
-0.479095459
-0.4721374512
-0.4765014648
-0.4749755859
-0.4718017578
-0.4532470703
-0.4300537109
-0.4288635254
-0.4265136719
-0.4254150391
-0.4320983887
-0.4229431152
-0.4150695801
-0.4081420898
-0.3961181641
-0.4019775391
-0.4069519043
-0.3999633789
-0.3946838379
-0.393371582
-0.3915100098
-0.3938293457
-0.40234375
-0.4016113281
-0.3881225586
-0.4016113281
-0.4204101562
-0.4254760742
-0.4421386719
-0.4533081055
-0.4739990234
-0.4843139648
-0.4850769043
-0.491027832
-0.4927062988
-0.5127868652
-0.5247497559
-0.5120849609
-0.5087280273
-0.5184020996
-0.5114135742
-0.5071105957
-0.5167541504
-0.5264282227
-0.5270385742
-0.5189208984
-0.5124511719
-0.5188598633
-0.5306396484
-0.5366821289
-0.5354003906
-0.5367736816
-0.5370483398
-0.5294799805
-0.5428161621
-0.5465698242
-0.5471496582
-0.5678710938
-0.5744628906
-0.5733642578
-0.5738830566
-0.5690002441
-0.5738830566
-0.5782470703
-0.5780029297
-0.5766601562
-0.5699768066
-0.5677490234
-0.5659179688
-0.5555114746
-0.544921875
-0.5513305664
-0.553894043
-0.5575256348
-0.5629272461
-0.5589904785
-0.5617980957
-0.556640625
-0.5487670898
-0.5463256836
-0.5555725098
-0.5624694824
-0.5555114746
-0.5683288574
-0.5842895508
-0.5946655273
-0.605682373
-0.5967102051
-0.5908203125
-0.5841064453
-0.5784301758
-0.5878601074
-0.5781555176
-0.5614318848
-0.5572509766
-0.5602416992
-0.5551757812
-0.5437316895
-0.5287475586
-0.5165100098
-0.5194396973
-0.5333557129
-0.5356140137
-0.5291748047
-0.5331726074
-0.5297851562
-0.5396118164
-0.559967041
-0.5819396973
-0.5935058594
-0.592010498
-0.591583252
-0.582611084
-0.5957336426
-0.6106872559
-0.6120300293
-0.6047058105
-0.6031494141
-0.6305236816
-0.6397094727
-0.6134338379
-0.5875549316
-0.5897521973
-0.6256713867
-0.6347351074
-0.5881347656
-0.5157470703
-0.4969787598
-0.4937133789
-0.3697814941
-0.2493286133
-0.1328735352
0.07955932617
0.3807067871
0.6528015137
0.8771057129
0.9120788574
0.7718200684
0.6129455566
0.2037658691
-0.3678283691
-0.8117675781
-0.901550293
-0.8894348145
-0.8762207031
-0.7238464355
-0.5736999512
-0.5067138672
-0.5315856934
-0.5195007324
-0.4797363281
-0.4555358887
-0.4584960938
-0.4975280762
-0.4892272949
-0.448059082
-0.4329223633
-0.4462585449
-0.4692077637
-0.4626464844
-0.4391784668
-0.4046020508
-0.3940734863
-0.4004211426
-0.3793945312
-0.3565979004
-0.3408508301
-0.3474121094
-0.3374633789
-0.3204345703
-0.3153991699
-0.2865905762
-0.2683105469
-0.2375183105
-0.2007751465
-0.1858215332
-0.1674194336
-0.1422424316
-0.09869384766
-0.06149291992
-0.03854370117
-0.01461791992
0.03158569336
0.08984375
0.1133728027
0.1215515137
0.1268920898
0.1346740723
0.1473693848
0.1513671875
0.1454467773
0.1434631348
0.1429443359
0.1303100586
0.1192626953
0.09698486328
0.07229614258
0.04376220703
0.004089355469
-0.04104614258
-0.08880615234
-0.1192016602
-0.1513671875
-0.1904296875
-0.2223510742
-0.2545166016
-0.2808227539
-0.3049926758
-0.3310852051
-0.3542480469
-0.3659362793
-0.3700866699
-0.3919677734
-0.4098205566
-0.4149169922
-0.4065246582
-0.4137878418
-0.4353637695
-0.4382324219
-0.4402160645
-0.4328918457
-0.4212646484
-0.4172363281
-0.407989502
-0.3885192871
-0.3896484375
-0.3944702148
-0.3842163086
-0.3893432617
-0.3928833008
-0.3905639648
-0.3889770508
-0.3861694336
-0.3899536133
-0.3933410645
-0.392364502
-0.3956604004
-0.3922729492
-0.3727111816
-0.3746032715
-0.3768310547
-0.3668518066
-0.3684692383
-0.3777770996
-0.3946228027
-0.4067382812
-0.4183654785
-0.4300537109
-0.4401550293
-0.4443969727
-0.4735412598
-0.484588623
-0.4704589844
-0.4790039062
-0.4605407715
-0.4634094238
-0.4749145508
-0.4688720703
-0.4683837891
-0.4627380371
-0.4653625488
-0.4659423828
-0.4798278809
-0.4876403809
-0.4813232422
-0.4731750488
-0.477935791
-0.4908752441
-0.5024414062
-0.5118713379
-0.5009765625
-0.4989013672
-0.5039978027
-0.5114440918
-0.5238037109
-0.5271606445
-0.5152282715
-0.5070495605
-0.5182800293
-0.518737793
-0.5134277344
-0.5177612305
-0.5185852051
-0.522064209
-0.521270752
-0.5173034668
-0.5282287598
-0.5312194824
-0.5137329102
-0.5072937012
-0.5121154785
-0.5043029785
-0.5039978027
-0.5165405273
-0.5301818848
-0.5622253418
-0.5782775879
-0.5726318359
-0.5701904297
-0.5557250977
-0.5590209961
-0.576171875
-0.5738830566
-0.5717163086
-0.5745239258
-0.5596008301
-0.539642334
-0.5263366699
-0.5083312988
-0.513671875
-0.528137207
-0.5295715332
-0.5141296387
-0.4976501465
-0.5067749023
-0.5111694336
-0.5150756836
-0.5155029297
-0.5435180664
-0.5648498535
-0.5514526367
-0.5546875
-0.5626220703
-0.5823059082
-0.5797119141
-0.5582580566
-0.5556335449
-0.5748596191
-0.5979614258
-0.5908813477
-0.570526123
-0.5826721191
-0.6278381348
-0.640625
-0.5998840332
-0.5354003906
-0.4881591797
-0.4676208496
-0.3727111816
-0.2469482422
-0.1287841797
0.05902099609
0.3033447266
0.5791015625
0.8127441406
0.8950500488
0.7872009277
0.6103820801
0.3380432129
-0.1694335938
-0.6804199219
-0.8177490234
-0.805267334
-0.8278503418
-0.7310791016
-0.5849304199
-0.5010070801
-0.5192871094
-0.5335388184
-0.5053100586
-0.4677124023
-0.4616088867
-0.4803771973
-0.4808654785
-0.4599914551
-0.4311218262
-0.434387207
-0.4668579102
-0.4715270996
-0.4356994629
-0.4165039062
-0.4063415527
-0.4026184082
-0.3864135742
-0.3586730957
-0.3534851074
-0.3537597656
-0.3489074707
-0.3330383301
-0.3193969727
-0.3048706055
-0.2806091309
-0.2596435547
-0.2244873047
-0.2006225586
-0.1909790039
-0.1535644531
-0.1232299805
-0.1028137207
-0.08233642578
-0.06216430664
-0.01751708984
0.01895141602
0.0498046875
0.07388305664
0.07592773438
0.09494018555
0.1117248535
0.1178894043
0.1225585938
0.110748291
0.09527587891
0.09234619141
0.06744384766
0.03457641602
0.01885986328
-0.01843261719
-0.05310058594
-0.08905029297
-0.1310119629
-0.1524658203
-0.1882019043
-0.2148742676
-0.2340698242
-0.267791748
-0.305480957
-0.3264770508
-0.3486022949
-0.3771362305
-0.3851013184
-0.4020996094
-0.4198913574
-0.4423522949
-0.459777832
-0.4642333984
-0.4696044922
-0.4785461426
-0.4879150391
-0.4888305664
-0.4861450195
-0.4784545898
-0.477722168
-0.4776000977
-0.4663696289
-0.455291748
-0.453125
-0.4508056641
-0.4335327148
-0.4360046387
-0.4494018555
-0.4495544434
-0.4497375488
-0.4585266113
-0.4680480957
-0.4643554688
-0.463684082
-0.4592285156
-0.4573059082
-0.4633178711
-0.4596862793
-0.4546508789
-0.4596557617
-0.4682006836
-0.4672241211
-0.4650268555
-0.4656677246
-0.4666748047
-0.473449707
-0.4806518555
-0.4902038574
-0.4851989746
-0.4852600098
-0.5023803711
-0.4949645996
-0.5040588379
-0.5270996094
-0.5328674316
-0.5273742676
-0.513671875
-0.524810791
-0.5472412109
-0.5484313965
-0.5419616699
-0.5456542969
-0.5478210449
-0.5437011719
-0.5366516113
-0.5430297852
-0.5492858887
-0.5476989746
-0.5554199219
-0.5576171875
-0.5581359863
-0.5547180176
-0.5570678711
-0.5631408691
-0.5521240234
-0.5497436523
-0.5515136719
-0.5425109863
-0.5373535156
-0.533203125
-0.5350036621
-0.5368041992
-0.5359802246
-0.5402832031
-0.536895752
-0.5379943848
-0.5478515625
-0.541595459
-0.538269043
-0.5424499512
-0.5448608398
-0.5541381836
-0.550567627
-0.5488891602
-0.5597839355
-0.5807800293
-0.5848083496
-0.5673828125
-0.561706543
-0.5585327148
-0.5628356934
-0.5606384277
-0.5534973145
-0.5411987305
-0.5276489258
-0.5288391113
-0.5255432129
-0.5242614746
-0.5209960938
-0.5185241699
-0.5207214355
-0.5268554688
-0.5380554199
-0.5548095703
-0.5721435547
-0.5633544922
-0.5581970215
-0.5708312988
-0.5783996582
-0.5780944824
-0.5687561035
-0.568939209
-0.5788574219
-0.5927124023
-0.5961608887
-0.5693969727
-0.5506896973
-0.5623779297
-0.5950927734
-0.6022644043
-0.5516967773
-0.4847412109
-0.4775085449
-0.4535827637
-0.3268432617
-0.1971435547
-0.06692504883
0.1522521973
0.4567260742
0.6661682129
0.8461303711
0.8349914551
0.7001342773
0.524810791
0.05944824219
-0.4651794434
-0.8538818359
-0.9054870605
-0.8703308105
-0.8160095215
-0.6391296387
-0.5112609863
-0.4737243652
-0.5037536621
-0.4927368164
-0.4442749023
-0.422668457
-0.4525146484
-0.4846496582
-0.493927002
-0.4627075195
-0.4441833496
-0.4565124512
-0.4658813477
-0.4569702148
-0.4296569824
-0.4217834473
-0.4228820801
-0.4140319824
-0.3957214355
-0.3797302246
-0.3799133301
-0.3757324219
-0.3577575684
-0.3464050293
-0.3352355957
-0.3118896484
-0.2796325684
-0.2676391602
-0.2431030273
-0.21484375
-0.2131347656
-0.1871337891
